***Scan Config Information***,,,,,,,***Reference Scan Information***,,,,,,,,
Scan Config Name:,Hadamard 1,,,,,,Scan Config Name:,Local New Reference,,,,,,,
Scan Config Type:,Slew,Num Section:,1,,,,Scan Config Type:,Slew,Num Section:,1,,,,,
Section Config Type:,Hadamard,,,,,,Section Config Type:,Hadamard,,,,,,,
Start Wavelength (nm):,900,,,,,,Start Wavelength (nm):,900,,,,,,,
End Wavelength (nm):,1700,,,,,,End Wavelength (nm):,1700,,,,,,,
Pattern Width (nm):,7.03,,,,,,Pattern Width (nm):,7.03,,,,,,,
Exposure (ms):,0.635,,,,,,Exposure (ms):,0.635,,,,,,,
Digital Resolution:,228,,,,,,Digital Resolution:,228,,,,,,,
Num Repeats:,6,,,,,,Num Repeats:,6,,,,,,,
PGA Gain:,64,,,,,,PGA Gain:,64,,,,,,,
System Temp (C):,29.38,,,,,,System Temp (C):,25.5,,,,,,,
Humidity (%):,37.62,,,,,,Humidity (%):,46.33,,,,,,,
Lamp Intensity:,1515,,,,,,Lamp Intensity:,1459,,,,,,,
Data Date-Time:,2021/10/29T15:10:33,,,,,,Data Date-Time:,2021/10/29T14:59:55,,,,,,,
Total Measurement Time in sec:,3.1682278,,,,,,,,,,,,,,
,,,,,,,,,,,,,,,
***General Information***,,,,,,,***Calibration Coefficients***,,,,,,,,
Model Name:,NIR-M-R2-OB,,,,,,Shift Vector Coefficients:,-6.20249141707927,0.0552441215585706,-0.000122501697169825,,,,,
Serial Number:,818R045,(95UB121GC2V818R045),,,,,Pixel to Wavelength Coefficients:,1776.51064022294,-0.918730919349196,-0.000243316388033348,,,,,
GUI Version:,3.7.6,,,,,,Versions (Cal/Ref/Cfg):,1,3,1,,,,,
TIVA Version:,2.3.2,,,,,,***Lamp Usage ***,,,,,,,,
DLPC Version:,2.2.0,,,,,,Total Time(hh:mm:ss):,3hr 42min 51sec ,,,,,,,
UUID:,DE:66:30:83:1F:90:60:37,,,,,,***Device/Error/Activation Status***,,,,,,,,
Main Board Version:,D,,,,,,Device Status:,0x00000001,Activation Status:,Activated,,,,,
Detector Board Version:,B,,,,,,Error status:,0x00000000,Error Code:,0x00000000000000000000000000000000,,,,,
,,,,,,,,,Error Details:,Not found,,,,,
***Scan Data***,,,,,,,,,,,,,,,
Wavelength (nm),Absorbance (AU),Reference Signal (unitless),Sample Signal (unitless)
900.813664922249,0.035683286570053,3461,3188
904.71879766459,0.0350196694664665,3795,3501
909.91882846218,0.0129171700155128,4129,4008
913.813741916224,0.024559600521205,4547,4297
917.704275675283,0.017601094978607,4960,4763
921.590429739357,0.0243325780402798,5616,5310
925.472204108447,0.0280332709721674,6367,5969
929.349598782552,0.0312468724843029,7188,6689
933.222613761673,0.0187452595461583,7646,7323
937.091249045809,0.0194384780647174,8293,7930
942.242616565792,0.0354299751155905,9165,8447
946.101032561631,0.0239613204262672,9501,8991
949.955068862485,0.0162313308589587,9868,9506
953.804725468354,0.0231540351920797,10324,9788
957.650002379239,0.0147246435876014,10799,10439
961.490899595139,0.0143939089502431,11227,10861
965.327417116055,0.0188665841924043,11832,11329
969.159554941986,0.0147293919200786,12205,11798
972.987313072933,0.0161357742244224,12722,12258
978.084177721996,0.0075872852932402,13165,12937
981.901716564645,0.00643411000540986,13600,13400
985.71487571231,0.0118111946577224,13977,13602
989.52365516499,0.00615245424469312,14218,14018
993.328054922685,0.00943926146847974,14558,14245
997.128074985396,0.0115391518693241,14836,14447
1000.92371535312,0.00604921516727783,14965,14758
1004.71497602586,0.00948711010487469,15087,14761
1009.76317739732,0.00798315693968838,15263,14985
1013.54421878176,0.0097206430369038,15361,15021
1017.32088047122,0.0109294629635655,15371,14989
1021.0931624657,0.0159779505812445,15503,14943
1024.86106476519,0.0129948863404408,15401,14947
1028.62458736969,0.0148768108350944,15412,14893
1032.38373027922,0.0165383188738481,15362,14788
1036.13849349375,0.0126764256061274,15365,14923
1039.8888770133,0.0187154015986435,15387,14738
1044.88257551384,0.0161496546081387,15259,14702
1048.6227397451,0.0150899696945909,15198,14679
1052.35852428137,0.0165821503869098,15162,14594
1056.08992912265,0.0174777607714419,15135,14538
1059.81695426895,0.0192069280078258,15071,14419
1063.53959972027,0.0191181607977062,15093,14443
1067.2578654766,0.0187541192938154,15001,14367
1070.97175153795,0.0190903511478198,15068,14420
1075.91678676088,0.0223781444551691,15053,14297
1079.62045353393,0.0180969936568673,15044,14430
1083.31974061199,0.0163066379836557,14952,14401
1087.01464799507,0.0194457416287267,15027,14369
1090.70517568317,0.0162748892919895,15035,14482
1094.39132367628,0.0188705274626415,14981,14344
1098.0730919744,0.0177551706861849,15078,14474
1101.75048057755,0.0147874315535523,14936,14436
1105.4234894857,0.0141659192550707,14957,14477
1110.31402183771,0.0113561147091495,14762,14381
1113.97681145757,0.00916877960024002,14552,14248
1117.63522138245,0.0025990172234889,14246,14161
1121.28925161234,0.000307356334062249,14135,14125
1124.93890214725,-0.00469445778506611,14078,14231
1128.58417298717,-0.00898540417307584,13920,14211
1132.2250641321,-0.0119649637249681,13747,14131
1135.86157558206,-0.0128846810727186,13682,14094
1140.70344465646,-0.00470590279608194,13860,14011
1144.32973681812,0.00277744696071536,13961,13872
1147.95164928479,0.00111835550702269,13998,13962
1151.56918205647,0.00473932564067752,14097,13944
1155.18233513317,0.00469310515831032,14049,13898
1158.79110851489,0.00954325470544033,14033,13728
1162.39550220162,0.00264833753373188,13817,13733
1165.99551619337,0.00984305815370106,13878,13567
1169.59115049013,0.00495231464241876,13935,13777
1174.37851669362,0.00893926565531343,13940,13656
1177.96393170208,0.0140813519658212,14011,13564
1181.54496701556,0.0117671649433974,14066,13690
1185.12162263406,0.0113919838309913,14214,13846
1188.69389855757,0.0115352352313622,14345,13969
1192.2617947861,0.00976392609429208,14484,14162
1195.82531131964,0.0104725629252247,14858,14504
1199.3844481582,0.0137003579760208,15135,14665
1204.12315108408,0.00972787496425214,15440,15098
1207.67206863434,0.0109854506452703,15694,15302
1211.21660648961,0.0124162914515296,16108,15654
1214.7567646499,0.0102419977502909,16304,15924
1218.29254311521,0.0158682119605725,16751,16150
1221.82394188553,0.0155537200749997,16913,16318
1225.35096096087,0.0167343281953618,17249,16597
1228.87360034122,0.0203567257495876,17536,16733
1232.39186002659,0.0226113257099682,17819,16915
1237.07606008155,0.0253891078650257,18262,17225
1240.58410047862,0.024609144296262,18461,17444
1244.0877611807,0.0205123275787493,18750,17885
1247.58704218781,0.0226660237810879,19016,18049
1251.08194349992,0.0264732307494368,19379,18233
1254.57246511705,0.0219332108520686,19574,18610
1258.0586070392,0.0225882692489895,19869,18862
1261.54036926637,0.0171410913107221,20155,19375
1266.17590604372,0.0131013330592556,20561,19950
1269.64744898258,0.0160015775513401,20954,20196
1273.11461222646,0.0150416452533817,21268,20544
1276.57739577536,0.0102782984346713,21335,20836
1280.03579962927,0.0127671571739675,21816,21184
1283.4898237882,0.00972558700675835,21901,21416
1286.93946825214,0.00948525366688379,22172,21693
1290.3847330211,0.00847966991564814,22342,21910
1293.82561809507,0.00985216677344524,22559,22053
1298.40665200151,0.00918376407050779,22653,22179
1301.83731778718,0.00485121730809545,22776,22523
1305.26360387787,0.00696267080131856,22824,22461
1308.68551027358,0.00440853763887192,22872,22641
1312.1030369743,0.00622860533590128,22894,22568
1315.51618398004,0.00677647144020678,22994,22638
1318.92495129079,0.00525685205286808,22940,22664
1322.32933890656,0.00385619941185204,22964,22761
1326.86170953539,0.0020659777341271,22757,22649
1330.25587786286,0.00134784474105438,22590,22520
1333.64566649535,0.00362460430287187,22620,22432
1337.03107543285,-0.00126353025696131,22309,22374
1340.41210467537,-0.00149377322432238,22058,22134
1343.7887542229,-0.00566279694898411,21639,21923
1347.16102407545,-0.00464188306940767,21404,21634
1350.52891423301,-0.00545672582557021,21117,21384
1353.89242469559,-0.00584658023287717,20733,21014
1358.3702924535,-0.00506335149913638,20295,20533
1361.72358362778,-0.00486259986507009,20072,20298
1365.07249510707,-0.0020676064902068,19907,20002
1368.41702689139,-0.00571608072780884,19549,19808
1371.75717898071,-0.00493875699198195,19411,19633
1375.09295137506,-0.0083929685977344,19115,19488
1378.42434407441,-0.00895863192784133,18712,19102
1381.75135707879,-0.00830326829858425,18391,18746
1385.07399038818,-0.00894205859868848,18026,18401
1389.49735527517,-0.00772664543519889,17604,17920
1392.80976929626,-0.00848160924905909,17240,17580
1396.11780362236,-0.0125898631440673,16863,17359
1399.42145825349,-0.0156103016682361,16613,17221
1402.72073318962,-0.0238799866790748,16152,17065
1406.01562843078,-0.0296158743378726,15927,17051
1409.30614397695,-0.0304827376670927,15651,16789
1412.59227982813,-0.0410527550051533,15221,16730
1416.96698143751,-0.0495402706922566,14723,16502
1420.2428980004,-0.0591263924012817,14385,16483
1423.5144348683,-0.0606230099154479,14132,16249
1426.78159204122,-0.0689152640325428,13805,16179
1430.04436951915,-0.0725776948414296,13596,16069
1433.3027673021,-0.0781135770200061,13372,16007
1436.55678539006,-0.0804310310469821,13128,15799
1439.80642378304,-0.0780789751972691,13150,15740
1443.05168248104,-0.0776381026920754,13063,15620
1447.3718812195,-0.0870979282872081,12847,15700
1450.6069206292,-0.0815558910672773,12828,15478
1453.83758034391,-0.0852104613215281,12709,15464
1457.06386036364,-0.0864037209142205,12652,15437
1460.28576068838,-0.0859386217722171,12531,15273
1463.50328131814,-0.0802468312067667,12619,15180
1466.71642225291,-0.0880860115045427,12390,15176
1469.9251834927,-0.0850638481761118,12368,15044
1474.19671895356,-0.0829116201896999,12365,14966
1477.39526090505,-0.0781382684719334,12368,14806
1480.58942316156,-0.0795667189343482,12200,14653
1483.77920572308,-0.0776979902539056,12123,14498
1486.96460858962,-0.0793547472653145,12096,14521
1490.14563176117,-0.075984611686948,11977,14267
1493.32227523774,-0.0793583333874171,11851,14227
1496.49453901933,-0.0757750938004551,11819,14072
1499.66242310593,-0.0750788202650592,11700,13908
1503.87945569586,-0.0729762654634622,11690,13829
1507.03712049416,-0.0667362123951536,11788,13746
1510.19040559748,-0.0709497293782777,11540,13588
1513.33931100582,-0.0686408435306921,11587,13571
1516.48383671916,-0.065922207658723,11640,13548
1519.62398273753,-0.0699893158653777,11420,13417
1522.75974906091,-0.066865254948706,11415,13315
1525.8911356893,-0.0657593023250418,11353,13209
1530.05950500163,-0.0692791301572252,11275,13225
1533.18067234173,-0.0688849257208971,11147,13063
1536.29745998684,-0.065693380896351,10955,12744
1539.40986793697,-0.0714723786792816,10733,12653
1542.51789619211,-0.0670516959031721,10644,12421
1545.62154475227,-0.0711378213343157,10563,12443
1548.72081361745,-0.0671433636202232,10413,12154
1551.81570278764,-0.068284990443169,10184,11918
1554.90621226284,-0.0671273785218281,9961,11626
1559.02007870425,-0.0668199216459814,9782,11409
1562.10036889116,-0.0659157422005738,9579,11149
1565.17627938308,-0.0607420967937737,9386,10795
1568.24781018002,-0.060656789785794,9200,10579
1571.31496128198,-0.059063368353076,9109,10436
1574.37773268895,-0.0600676152062508,8845,10157
1577.43612440093,-0.059041830799907,8728,9999
1580.49013641793,-0.0559380617872564,8584,9764
1584.55533958173,-0.0503336739187906,8317,9339
1587.59913231044,-0.0488788625733637,8235,9216
1590.63854534416,-0.0477402425996769,8064,9001
1593.67357868289,-0.0426948581611905,7841,8651
1596.70423232664,-0.0443745207737703,7706,8535
1599.7305062754,-0.0475922029819026,7417,8276
1602.75240052918,-0.0400223611124646,7272,7974
1605.76991508798,-0.034114912778718,7232,7823
1608.78304995179,-0.0328895329128297,7080,7637
1612.79375024467,-0.024639527641013,6818,7216
1615.79666582019,-0.0393135940221854,6491,7106
1618.79520170071,-0.0347515642354496,6338,6866
1621.78935788626,-0.0383379228811885,6057,6616
1624.77913437682,-0.0296006702877772,5912,6329
1627.76453117239,-0.03466439639462,5813,6296
1630.74554827298,-0.039940746808053,5502,6032
1633.72218567859,-0.026409252080304,5407,5746
1637.68422269387,-0.0368434147450869,5060,5508
1640.65064081117,-0.0250343598929383,4921,5213
1643.6126792335,-0.023078024775823,4709,4966
1646.57033796084,-0.00795347682628789,4599,4684
1649.52361699319,-0.00394905637016779,4379,4419
1652.47251633056,-0.0014507583871638,4184,4198
1655.41703597295,-0.0203196705037196,3904,4091
1658.35717592035,-0.0232056156741565,3735,3940
1661.29293617276,-0.0364001695361491,3603,3918
1665.20047031712,-0.0418374189012095,3283,3615
1668.12601128124,-0.0573245646085624,3012,3437
1671.04717255037,-0.0717857754240779,2754,3249
1673.96395412452,-0.0723911759672734,2514,2970
1676.87635600369,-0.0702416491164928,2176,2558
1679.78437818787,-0.0899244052700905,1830,2251
1682.68802067706,-0.0898751293184038,1531,1883
1685.58728347128,-0.129288375340434,1217,1639
1689.44615433803,-0.105883878596475,1025,1308
1692.33519784394,-0.112535320904256,808,1047
1695.21986165487,-0.0577625054920808,710,811
1698.10014577081,-0.0300072895823314,657,704
1700.97605019177,-0.0802891407349339,522,628
