***Scan Config Information***,,,,,,,***Reference Scan Information***,,,,,,,,
Scan Config Name:,Hadamard 1,,,,,,Scan Config Name:,Local New Reference,,,,,,,
Scan Config Type:,Slew,Num Section:,1,,,,Scan Config Type:,Slew,Num Section:,1,,,,,
Section Config Type:,Hadamard,,,,,,Section Config Type:,Hadamard,,,,,,,
Start Wavelength (nm):,900,,,,,,Start Wavelength (nm):,900,,,,,,,
End Wavelength (nm):,1700,,,,,,End Wavelength (nm):,1700,,,,,,,
Pattern Width (nm):,7.03,,,,,,Pattern Width (nm):,7.03,,,,,,,
Exposure (ms):,0.635,,,,,,Exposure (ms):,0.635,,,,,,,
Digital Resolution:,228,,,,,,Digital Resolution:,228,,,,,,,
Num Repeats:,6,,,,,,Num Repeats:,6,,,,,,,
PGA Gain:,64,,,,,,PGA Gain:,64,,,,,,,
System Temp (C):,31.9,,,,,,System Temp (C):,25.87,,,,,,,
Humidity (%):,17.78,,,,,,Humidity (%):,26.83,,,,,,,
Lamp Intensity:,1553,,,,,,Lamp Intensity:,1464,,,,,,,
Data Date-Time:,2021/10/27T15:49:51,,,,,,Data Date-Time:,2021/10/27T15:20:30,,,,,,,
Total Measurement Time in sec:,3.1398905,,,,,,,,,,,,,,
,,,,,,,,,,,,,,,
***General Information***,,,,,,,***Calibration Coefficients***,,,,,,,,
Model Name:,NIR-M-R2-OB,,,,,,Shift Vector Coefficients:,-6.20249141707927,0.0552441215585706,-0.000122501697169825,,,,,
Serial Number:,818R045,(95UB121GC2V818R045),,,,,Pixel to Wavelength Coefficients:,1776.51064022294,-0.918730919349196,-0.000243316388033348,,,,,
GUI Version:,3.7.6,,,,,,Versions (Cal/Ref/Cfg):,1,3,1,,,,,
TIVA Version:,2.3.2,,,,,,***Lamp Usage ***,,,,,,,,
DLPC Version:,2.2.0,,,,,,Total Time(hh:mm:ss):,3hr 40min 37sec ,,,,,,,
UUID:,DE:66:30:83:1F:90:60:37,,,,,,***Device/Error/Activation Status***,,,,,,,,
Main Board Version:,D,,,,,,Device Status:,0x00000001,Activation Status:,Activated,,,,,
Detector Board Version:,B,,,,,,Error status:,0x00000000,Error Code:,0x00000000000000000000000000000000,,,,,
,,,,,,,,,Error Details:,Not found,,,,,
***Scan Data***,,,,,,,,,,,,,,,
Wavelength (nm),Absorbance (AU),Reference Signal (unitless),Sample Signal (unitless)
900.813664922249,-0.141594615866277,3907,5413
904.71879766459,-0.124195673801277,4241,5645
909.91882846218,-0.114090003818855,4783,6220
913.813741916224,-0.105644868092018,5247,6692
917.704275675283,-0.114759641530862,5806,7562
921.590429739357,-0.099958716134778,6615,8327
925.472204108447,-0.113609196865363,7301,9484
929.349598782552,-0.105127649780246,8062,10270
933.222613761673,-0.109342890665254,8753,11259
937.091249045809,-0.113571805052595,9445,12268
942.242616565792,-0.130260489475206,10098,13630
946.101032561631,-0.117904730946646,10737,14086
949.955068862485,-0.112754487267359,11368,14738
953.804725468354,-0.113548408671792,11763,15278
957.650002379239,-0.116118387182528,12410,16214
961.490899595139,-0.11702105692128,12828,16795
965.327417116055,-0.117104603882193,13467,17635
969.159554941986,-0.109260739070833,14109,18145
972.987313072933,-0.109738061443749,14704,18931
978.084177721996,-0.104543058084827,15329,19501
981.901716564645,-0.10293154216755,15958,20226
985.71487571231,-0.10794385711046,16260,20848
989.52365516499,-0.0946912250052861,16837,20939
993.328054922685,-0.0966715332388929,17123,21392
997.128074985396,-0.0967750791909679,17383,21722
1000.92371535312,-0.0940633327788575,17694,21973
1004.71497602586,-0.0930201392118539,18011,22313
1009.76317739732,-0.0972534607480682,17949,22454
1013.54421878176,-0.0887535514032944,18016,22101
1017.32088047122,-0.0803004593217471,18085,21758
1021.0931624657,-0.0805498452801884,18112,21803
1024.86106476519,-0.078880133588843,18035,21627
1028.62458736969,-0.0793982064660656,18011,21624
1032.38373027922,-0.0884856855750173,17917,21966
1036.13849349375,-0.0942231650898413,17900,22237
1039.8888770133,-0.100569019605525,17918,22587
1044.88257551384,-0.0968132127219311,17948,22430
1048.6227397451,-0.0956664814973146,17697,22058
1052.35852428137,-0.0931807855288358,17684,21916
1056.08992912265,-0.088617825254375,17671,21671
1059.81695426895,-0.0931685283486253,17603,21815
1063.53959972027,-0.0953817602318837,17650,21985
1067.2578654766,-0.0925179286582086,17690,21890
1070.97175153795,-0.0964049252836772,17723,22128
1075.91678676088,-0.101138586280595,17702,22344
1079.62045353393,-0.0972977562438704,17689,22131
1083.31974061199,-0.094010092565122,17821,22128
1087.01464799507,-0.101951441308098,17763,22463
1090.70517568317,-0.100887624532312,17694,22321
1094.39132367628,-0.101123784162486,17785,22448
1098.0730919744,-0.0995778519962555,17722,22289
1101.75048057755,-0.09917868624368,17833,22408
1105.4234894857,-0.0949611538208304,17823,22179
1110.31402183771,-0.105600405403901,17554,22386
1113.97681145757,-0.0997111590029467,17556,22087
1117.63522138245,-0.105378102304239,17410,22191
1121.28925161234,-0.109192119092203,17215,22136
1124.93890214725,-0.0993617305364178,17240,21672
1128.58417298717,-0.0993713847161477,17137,21543
1132.2250641321,-0.0961919139761078,17069,21301
1135.86157558206,-0.089787331620719,17090,21015
1140.70344465646,-0.0962872820824693,17308,21604
1144.32973681812,-0.0947814095383644,17344,21574
1147.95164928479,-0.104785584107705,17290,22008
1151.56918205647,-0.103564112377339,17345,22016
1155.18233513317,-0.10610347830681,17341,22140
1158.79110851489,-0.106203961474314,17207,21974
1162.39550220162,-0.102022924291425,17243,21809
1165.99551619337,-0.105678889991422,17209,21950
1169.59115049013,-0.105496023648898,17439,22234
1174.37851669362,-0.100102004596626,17487,22020
1177.96393170208,-0.0920206272548888,17597,21750
1181.54496701556,-0.0957838478537373,17608,21953
1185.12162263406,-0.092356850754653,18007,22274
1188.69389855757,-0.105939547274161,18059,23048
1192.2617947861,-0.10138003774108,18423,23267
1195.82531131964,-0.0993719035683623,18611,23396
1199.3844481582,-0.09623916007191,18918,23611
1204.12315108408,-0.101102624124911,19071,24070
1207.67206863434,-0.103075635493168,19569,24811
1211.21660648961,-0.109616417631903,19825,25517
1214.7567646499,-0.103656636554293,20184,25625
1218.29254311521,-0.097762638733552,20558,25748
1221.82394188553,-0.102201005228207,20771,26282
1225.35096096087,-0.103413044701074,21052,26712
1228.87360034122,-0.104120348986506,21301,27072
1232.39186002659,-0.108289419591827,21523,27618
1237.07606008155,-0.106290657790754,22020,28126
1240.58410047862,-0.104680742449726,22156,28195
1244.0877611807,-0.101797207092828,22533,28485
1247.58704218781,-0.107662303207521,22731,29126
1251.08194349992,-0.108772552884826,22975,29514
1254.57246511705,-0.105875910160009,23251,29670
1258.0586070392,-0.108109788084299,23580,30245
1261.54036926637,-0.110063851009725,23856,30737
1266.17590604372,-0.113643866334949,24326,31602
1269.64744898258,-0.110527208631569,24564,31683
1273.11461222646,-0.108889499535771,24800,31867
1276.57739577536,-0.100415366544396,25222,31783
1280.03579962927,-0.0946939132580971,25345,31520
1283.4898237882,-0.0951273666709836,25633,31910
1286.93946825214,-0.0955622940620629,25755,32094
1290.3847330211,-0.0977467719311277,25926,32470
1293.82561809507,-0.103664175056293,25980,32984
1298.40665200151,-0.104960706443853,26285,33471
1301.83731778718,-0.107306822295342,26341,33724
1305.26360387787,-0.11158619284487,26447,34195
1308.68551027358,-0.118060180878941,26426,34681
1312.1030369743,-0.117009159247079,26516,34715
1315.51618398004,-0.117334248702323,26487,34703
1318.92495129079,-0.117665800915479,26585,34858
1322.32933890656,-0.118234448744452,26471,34754
1326.86170953539,-0.125782636574958,26092,34857
1330.25587786286,-0.125319104556592,25964,34649
1333.64566649535,-0.12727060956491,25679,34423
1337.03107543285,-0.124144728926266,25594,34063
1340.41210467537,-0.127972918190074,25175,33802
1343.7887542229,-0.124161430895268,25025,33307
1347.16102407545,-0.128683653775179,24826,33388
1350.52891423301,-0.128910829110876,24570,33061
1353.89242469559,-0.12799282179554,24231,32536
1358.3702924535,-0.125066061023315,23873,31840
1361.72358362778,-0.126092730342209,23584,31529
1365.07249510707,-0.122812330426521,23545,31240
1368.41702689139,-0.12637627365888,23224,31068
1371.75717898071,-0.122302259513227,23049,30546
1375.09295137506,-0.12002198003818,22785,30038
1378.42434407441,-0.118715332722986,22544,29631
1381.75135707879,-0.119088696227743,22048,29004
1385.07399038818,-0.122277939911735,21652,28693
1389.49735527517,-0.125688716028908,21118,28206
1392.80976929626,-0.126130793696586,20647,27605
1396.11780362236,-0.131329977688459,20337,27518
1399.42145825349,-0.127944842201764,20120,27013
1402.72073318962,-0.124698583815907,19898,26516
1406.01562843078,-0.126528616815943,19768,26454
1409.30614397695,-0.12447519125649,19451,25907
1412.59227982813,-0.120490555762559,19259,25417
1416.96698143751,-0.118725547921043,19008,24984
1420.2428980004,-0.122714409797235,18645,24733
1423.5144348683,-0.127898405411518,18426,24736
1426.78159204122,-0.128440557995699,18281,24572
1430.04436951915,-0.134229764264149,18105,24662
1433.3027673021,-0.122264610829136,18327,24286
1436.55678539006,-0.119840511863191,18444,24305
1439.80642378304,-0.11948214212022,18321,24123
1443.05168248104,-0.11246402042799,18391,23827
1447.3718812195,-0.0923675576627842,18030,22303
1450.6069206292,-0.0653647339595801,18033,20962
1453.83758034391,-0.062766273331112,17686,20436
1457.06386036364,-0.0728414290908314,17688,20918
1460.28576068838,-0.10047469361109,17472,22020
1463.50328131814,-0.126082493990206,17254,23066
1466.71642225291,-0.137921383187602,16988,23338
1469.9251834927,-0.146512553603614,16773,23503
1474.19671895356,-0.144692013718138,16488,23007
1477.39526090505,-0.140551205604323,16235,22439
1480.58942316156,-0.12081945979159,16022,21161
1483.77920572308,-0.106052925223213,15492,19777
1486.96460858962,-0.0910766422392733,15335,18913
1490.14563176117,-0.0687900954250537,15114,17708
1493.32227523774,-0.040405863974563,14820,16265
1496.49453901933,-0.0304441420733087,14501,15554
1499.66242310593,-0.0360333442329342,14380,15624
1503.87945569586,-0.0659044631844458,14243,16577
1507.03712049416,-0.0719162766189449,14176,16729
1510.19040559748,-0.0831431931088643,13967,16914
1513.33931100582,-0.0763741474996262,13814,16470
1516.48383671916,-0.0646347539216682,13722,15924
1519.62398273753,-0.0757168500910202,13488,16057
1522.75974906091,-0.0949338478423665,13216,16445
1525.8911356893,-0.119877964872208,13077,17234
1530.05950500163,-0.140358602971825,12817,17707
1533.18067234173,-0.148791282100007,12425,17502
1536.29745998684,-0.137995938851459,12360,16983
1539.40986793697,-0.142404280399983,12081,16769
1542.51789619211,-0.132537949572955,11741,15931
1545.62154475227,-0.137479034497814,11563,15869
1548.72081361745,-0.12129423262832,11428,15110
1551.81570278764,-0.116993276605592,11308,14804
1554.90621226284,-0.134238098623934,11135,15168
1559.02007870425,-0.155904373541733,10862,15553
1562.10036889116,-0.162689614134339,10805,15715
1565.17627938308,-0.183023339664688,10545,16072
1568.24781018002,-0.19552969529896,10435,16369
1571.31496128198,-0.20628072253484,10150,16321
1574.37773268895,-0.2089357702748,10022,16214
1577.43612440093,-0.212572541539501,9852,16073
1580.49013641793,-0.217092998056144,9733,16045
1584.55533958173,-0.214105515406522,9405,15398
1587.59913231044,-0.215655327119216,9181,15085
1590.63854534416,-0.209033297150282,8976,14525
1593.67357868289,-0.221649737363176,8731,14545
1596.70423232664,-0.214826409353659,8504,13946
1599.7305062754,-0.212766214603596,8504,13880
1602.75240052918,-0.211422550638327,8153,13266
1605.76991508798,-0.208296604545392,8007,12935
1608.78304995179,-0.213092945355454,7826,12783
1612.79375024467,-0.214606998795989,7426,12172
1615.79666582019,-0.199004246018063,7408,11714
1618.79520170071,-0.206786160448892,7064,11372
1621.78935788626,-0.203226766130302,6814,10880
1624.77913437682,-0.200372613059105,6649,10547
1627.76453117239,-0.195377795085705,6423,10072
1630.74554827298,-0.186456117727122,6238,9583
1633.72218567859,-0.19215915503001,6120,9526
1637.68422269387,-0.202429120751062,5726,9126
1640.65064081117,-0.208200842653096,5508,8896
1643.6126792335,-0.210237584163909,5049,8193
1646.57033796084,-0.215592016935405,4852,7971
1649.52361699319,-0.222727113005017,4643,7754
1652.47251633056,-0.2236575081161,4265,7138
1655.41703597295,-0.21047819935581,4187,6798
1658.35717592035,-0.204119982655925,3835,6136
1661.29293617276,-0.188344894279113,3774,5823
1665.20047031712,-0.217620536283566,3468,5724
1668.12601128124,-0.211309622393382,3220,5238
1671.04717255037,-0.190171690727585,3065,4749
1673.96395412452,-0.220466845268176,2770,4602
1676.87635600369,-0.212239113490854,2431,3963
1679.78437818787,-0.273166058437144,2108,3954
1682.68802067706,-0.302031251397163,1733,3474
1685.58728347128,-0.326565771221137,1354,2872
1689.44615433803,-0.334833018438917,1081,2337
1692.33519784394,-0.318462214656658,879,1830
1695.21986165487,-0.326209926523159,846,1793
1698.10014577081,-0.395714754536823,587,1460
1700.97605019177,-0.310182551276388,493,1007
