***Scan Config Information***,,,,,,,***Reference Scan Information***,,,,,,,,
Scan Config Name:,Hadamard 1,,,,,,Scan Config Name:,Local New Reference,,,,,,,
Scan Config Type:,Slew,Num Section:,1,,,,Scan Config Type:,Slew,Num Section:,1,,,,,
Section Config Type:,Hadamard,,,,,,Section Config Type:,Hadamard,,,,,,,
Start Wavelength (nm):,900,,,,,,Start Wavelength (nm):,900,,,,,,,
End Wavelength (nm):,1700,,,,,,End Wavelength (nm):,1700,,,,,,,
Pattern Width (nm):,7.03,,,,,,Pattern Width (nm):,7.03,,,,,,,
Exposure (ms):,0.635,,,,,,Exposure (ms):,0.635,,,,,,,
Digital Resolution:,228,,,,,,Digital Resolution:,228,,,,,,,
Num Repeats:,6,,,,,,Num Repeats:,6,,,,,,,
PGA Gain:,64,,,,,,PGA Gain:,64,,,,,,,
System Temp (C):,32.14,,,,,,System Temp (C):,25.5,,,,,,,
Humidity (%):,29.43,,,,,,Humidity (%):,46.33,,,,,,,
Lamp Intensity:,1555,,,,,,Lamp Intensity:,1459,,,,,,,
Data Date-Time:,2021/10/29T15:50:39,,,,,,Data Date-Time:,2021/10/29T14:59:55,,,,,,,
Total Measurement Time in sec:,3.1465713,,,,,,,,,,,,,,
,,,,,,,,,,,,,,,
***General Information***,,,,,,,***Calibration Coefficients***,,,,,,,,
Model Name:,NIR-M-R2-OB,,,,,,Shift Vector Coefficients:,-6.20249141707927,0.0552441215585706,-0.000122501697169825,,,,,
Serial Number:,818R045,(95UB121GC2V818R045),,,,,Pixel to Wavelength Coefficients:,1776.51064022294,-0.918730919349196,-0.000243316388033348,,,,,
GUI Version:,3.7.6,,,,,,Versions (Cal/Ref/Cfg):,1,3,1,,,,,
TIVA Version:,2.3.2,,,,,,***Lamp Usage ***,,,,,,,,
DLPC Version:,2.2.0,,,,,,Total Time(hh:mm:ss):,3hr 44min 6sec ,,,,,,,
UUID:,DE:66:30:83:1F:90:60:37,,,,,,***Device/Error/Activation Status***,,,,,,,,
Main Board Version:,D,,,,,,Device Status:,0x00000001,Activation Status:,Activated,,,,,
Detector Board Version:,B,,,,,,Error status:,0x00000000,Error Code:,0x00000000000000000000000000000000,,,,,
,,,,,,,,,Error Details:,Not found,,,,,
***Scan Data***,,,,,,,,,,,,,,,
Wavelength (nm),Absorbance (AU),Reference Signal (unitless),Sample Signal (unitless)
900.813664922249,0.0440737180511945,3461,3127
904.71879766459,0.0371336338958736,3795,3484
909.91882846218,0.0407725571608897,4129,3759
913.813741916224,0.0311792951779788,4547,4232
917.704275675283,0.0370886502110735,4960,4554
921.590429739357,0.0400723232873528,5616,5121
925.472204108447,0.0418567625292027,6367,5782
929.349598782552,0.0545188105552035,7188,6340
933.222613761673,0.0326655667541291,7646,7092
937.091249045809,0.0392143781328927,8293,7577
942.242616565792,0.0445219435483682,9165,8272
946.101032561631,0.0379506552701949,9501,8706
949.955068862485,0.0401314203385089,9868,8997
953.804725468354,0.0424329724868362,10324,9363
957.650002379239,0.0374413781805685,10799,9907
961.490899595139,0.0365840253546033,11227,10320
965.327417116055,0.0376284228042877,11832,10850
969.159554941986,0.0367385058342208,12205,11215
972.987313072933,0.0313504347519182,12722,11836
978.084177721996,0.0232410787272885,13165,12479
981.901716564645,0.0289152479348918,13600,12724
985.71487571231,0.0261580758899467,13977,13160
989.52365516499,0.0254097320406197,14218,13410
993.328054922685,0.0244517201923304,14558,13761
997.128074985396,0.0259028594886891,14836,13977
1000.92371535312,0.0229719202833421,14965,14194
1004.71497602586,0.0226902012546831,15087,14319
1009.76317739732,0.0255791102847467,15263,14390
1013.54421878176,0.0271531580619812,15361,14430
1017.32088047122,0.0230935591340496,15371,14575
1021.0931624657,0.0270456268074065,15503,14567
1024.86106476519,0.024685927539345,15401,14550
1028.62458736969,0.0227037389488976,15412,14627
1032.38373027922,0.0234057138607195,15362,14556
1036.13849349375,0.0258239922999676,15365,14478
1039.8888770133,0.0279478201390905,15387,14428
1044.88257551384,0.0278864392619452,15259,14310
1048.6227397451,0.0273624670595447,15198,14270
1052.35852428137,0.0261803753856727,15162,14275
1056.08992912265,0.0291032340233527,15135,14154
1059.81695426895,0.0272321961366222,15071,14155
1063.53959972027,0.0333616068775272,15093,13977
1067.2578654766,0.0317016924540168,15001,13945
1070.97175153795,0.0319585979953605,15068,13999
1075.91678676088,0.0351084566319809,15053,13884
1079.62045353393,0.0333810325263844,15044,13931
1083.31974061199,0.0315282951705973,14952,13905
1087.01464799507,0.0332954542501806,15027,13918
1090.70517568317,0.0349330461604408,15035,13873
1094.39132367628,0.0358820678085905,14981,13793
1098.0730919744,0.038433183100537,15078,13801
1101.75048057755,0.0346070564603843,14936,13792
1105.4234894857,0.035311722057516,14957,13789
1110.31402183771,0.0360855582372887,14762,13585
1113.97681145757,0.0359151286841004,14552,13397
1117.63522138245,0.0334152196691818,14246,13191
1121.28925161234,0.0366198009284383,14135,12992
1124.93890214725,0.0409579296759075,14078,12811
1128.58417298717,0.0415830426993546,13920,12649
1132.2250641321,0.042132566583057,13747,12476
1135.86157558206,0.0431483894037817,13682,12388
1140.70344465646,0.0466287633359511,13860,12449
1144.32973681812,0.0543410718706488,13961,12319
1147.95164928479,0.0585685167731325,13998,12232
1151.56918205647,0.0650153478019373,14097,12137
1155.18233513317,0.0649677318536301,14049,12097
1158.79110851489,0.0666322646829529,14033,12037
1162.39550220162,0.0639189525813537,13817,11926
1165.99551619337,0.0700034448612222,13878,11812
1169.59115049013,0.080023537085727,13935,11590
1174.37851669362,0.0765225708357502,13940,11688
1177.96393170208,0.0807027454491211,14011,11635
1181.54496701556,0.0754061920266369,14066,11824
1185.12162263406,0.0676756043642149,14214,12163
1188.69389855757,0.0628937769668426,14345,12411
1192.2617947861,0.0566063090505359,14484,12714
1195.82531131964,0.0538279540917726,14858,13126
1199.3844481582,0.0487809352663588,15135,13527
1204.12315108408,0.0387510888409568,15440,14122
1207.67206863434,0.0381560077524822,15694,14374
1211.21660648961,0.0368092507535903,16108,14799
1214.7567646499,0.0329434843138636,16304,15113
1218.29254311521,0.0345504249283266,16751,15470
1221.82394188553,0.0319891784255486,16913,15712
1225.35096096087,0.032589656114287,17249,16002
1228.87360034122,0.0307848120614401,17536,16336
1232.39186002659,0.0283489344522546,17819,16693
1237.07606008155,0.0323017764271284,18262,16953
1240.58410047862,0.0341234810010309,18461,17066
1244.0877611807,0.0350555954545025,18750,17296
1247.58704218781,0.034743074699552,19016,17554
1251.08194349992,0.0395789802231084,19379,17691
1254.57246511705,0.0344331190754643,19574,18082
1258.0586070392,0.0368655496659274,19869,18252
1261.54036926637,0.036296498041686,20155,18539
1266.17590604372,0.0365364742521669,20561,18902
1269.64744898258,0.0408251612763723,20954,19074
1273.11461222646,0.0409110382055546,21268,19356
1276.57739577536,0.0399051789745968,21335,19462
1280.03579962927,0.0433839773615912,21816,19742
1283.4898237882,0.0418073277944891,21901,19891
1286.93946825214,0.0440155231517051,22172,20035
1290.3847330211,0.0441578456386639,22342,20182
1293.82561809507,0.0465732361649976,22559,20265
1298.40665200151,0.0485291581904121,22653,20258
1301.83731778718,0.0498102994063313,22776,20308
1305.26360387787,0.052524702046729,22824,20224
1308.68551027358,0.0520649061482938,22872,20288
1312.1030369743,0.0544133106190675,22894,20198
1315.51618398004,0.0561986631868104,22994,20203
1318.92495129079,0.0585223599151741,22940,20048
1322.32933890656,0.0617800065869798,22964,19919
1326.86170953539,0.060581443581396,22757,19794
1330.25587786286,0.0637257469500589,22590,19507
1333.64566649535,0.0693405220643451,22620,19282
1337.03107543285,0.0703440967725117,22309,18973
1340.41210467537,0.0740064923473039,22058,18602
1343.7887542229,0.0766956797912676,21639,18136
1347.16102407545,0.0842672645349023,21404,17629
1350.52891423301,0.0902668141812781,21117,17154
1353.89242469559,0.0907845190491129,20733,16822
1358.3702924535,0.0906954564835499,20295,16470
1361.72358362778,0.0948485956996089,20072,16134
1365.07249510707,0.0957009003121541,19907,15970
1368.41702689139,0.0965269613697058,19549,15653
1371.75717898071,0.10270410800993,19411,15323
1375.09295137506,0.105717555073383,19115,14985
1378.42434407441,0.108511645370045,18712,14575
1381.75135707879,0.110851437936476,18391,14248
1385.07399038818,0.119020326854942,18026,13705
1389.49735527517,0.13170141613687,17604,12999
1392.80976929626,0.137755137174002,17240,12554
1396.11780362236,0.137877960252815,16863,12276
1399.42145825349,0.147977582766425,16613,11816
1402.72073318962,0.143244484238277,16152,11614
1406.01562843078,0.149709391918758,15927,11283
1409.30614397695,0.145983766543556,15651,11183
1412.59227982813,0.140261591441475,15221,11020
1416.96698143751,0.11862321193535,14723,11204
1420.2428980004,0.105793315676347,14385,11275
1423.5144348683,0.0936036524700267,14132,11392
1426.78159204122,0.0780564639004035,13805,11534
1430.04436951915,0.0729777492082819,13596,11493
1433.3027673021,0.0623753115768193,13372,11583
1436.55678539006,0.0517608215910445,13128,11653
1439.80642378304,0.0517804739403815,13150,11672
1443.05168248104,0.0456356051090865,13063,11760
1447.3718812195,0.0430726646596766,12847,11634
1450.6069206292,0.0410136723710077,12828,11672
1453.83758034391,0.0359255179528068,12709,11700
1457.06386036364,0.0408952409434353,12652,11515
1460.28576068838,0.0375523232820434,12531,11493
1463.50328131814,0.0393840062910091,12619,11525
1466.71642225291,0.0242919433665024,12390,11716
1469.9251834927,0.0240764972278002,12368,11701
1474.19671895356,0.0258681953352783,12365,11650
1477.39526090505,0.0234830466520298,12368,11717
1480.58942316156,0.0195867935897226,12200,11662
1483.77920572308,0.0146824934802386,12123,11720
1486.96460858962,0.0144187988106818,12096,11701
1490.14563176117,0.0132540601982047,11977,11617
1493.32227523774,0.0154049059125385,11851,11438
1496.49453901933,0.0106760989327795,11819,11532
1499.66242310593,0.0151458531034151,11700,11299
1503.87945569586,0.0170095633483797,11690,11241
1507.03712049416,0.0243210884577061,11788,11146
1510.19040559748,0.0182543905564359,11540,11065
1513.33931100582,0.0255893154970665,11587,10924
1516.48383671916,0.0278496700079718,11640,10917
1519.62398273753,0.0275928731973114,11420,10717
1522.75974906091,0.0320061967651983,11415,10604
1525.8911356893,0.0364101391879031,11353,10440
1530.05950500163,0.0423682946014445,11275,10227
1533.18067234173,0.0459436758421301,11147,10028
1536.29745998684,0.0447675323433261,10955,9882
1539.40986793697,0.050263237084362,10733,9560
1542.51789619211,0.0513514768430638,10644,9457
1545.62154475227,0.0603772641096179,10563,9192
1548.72081361745,0.0694564440105384,10413,8874
1551.81570278764,0.0609260498972266,10184,8851
1554.90621226284,0.0649168981954868,9961,8578
1559.02007870425,0.0700955869456742,9782,8324
1562.10036889116,0.0672415878699953,9579,8205
1565.17627938308,0.0742491653633791,9386,7911
1568.24781018002,0.0739820754774699,9200,7759
1571.31496128198,0.0854529982129209,9109,7482
1574.37773268895,0.0807060371194666,8845,7345
1577.43612440093,0.0809962523795697,8728,7243
1580.49013641793,0.0885296313059488,8584,7001
1584.55533958173,0.0973410227092464,8317,6647
1587.59913231044,0.0992897147534111,8235,6552
1590.63854534416,0.104187344791903,8064,6344
1593.67357868289,0.104227088813337,7841,6168
1596.70423232664,0.111509882847505,7706,5961
1599.7305062754,0.0960033741428755,7417,5946
1602.75240052918,0.106617936446139,7272,5689
1605.76991508798,0.129688691165337,7232,5365
1608.78304995179,0.12265468823828,7080,5338
1612.79375024467,0.130193655009579,6818,5052
1615.79666582019,0.122292828342428,6491,4898
1618.79520170071,0.135060023787745,6338,4644
1621.78935788626,0.137622069895149,6057,4412
1624.77913437682,0.126115687144074,5912,4422
1627.76453117239,0.145202607163441,5813,4161
1630.74554827298,0.135862614005794,5502,4024
1633.72218567859,0.142003134387639,5407,3899
1637.68422269387,0.14604221520925,5060,3615
1640.65064081117,0.155116342329407,4921,3443
1643.6126792335,0.156393316546923,4709,3285
1646.57033796084,0.159417638108925,4599,3186
1649.52361699319,0.153247448944667,4379,3077
1652.47251633056,0.169345101338781,4184,2833
1655.41703597295,0.169248358181052,3904,2644
1658.35717592035,0.166091182488105,3735,2548
1661.29293617276,0.178084686006794,3603,2391
1665.20047031712,0.169722324180866,3283,2221
1668.12601128124,0.173718648585024,3012,2019
1671.04717255037,0.123574184847709,2754,2072
1673.96395412452,0.16610114897115,2514,1715
1676.87635600369,0.119386037454695,2176,1653
1679.78437818787,0.0828992985652417,1830,1512
1682.68802067706,0.0621042678338255,1531,1327
1685.58728347128,0.0848565007507464,1217,1001
1689.44615433803,0.0221649085131576,1025,974
1692.33519784394,0.0458769499155483,808,727
1695.21986165487,0.0833607327009846,710,586
1698.10014577081,0.114273991441119,657,505
1700.97605019177,0.0634939611243016,522,451
