***Scan Config Information***,,,,,,,***Reference Scan Information***,,,,,,,,
Scan Config Name:,Hadamard 1,,,,,,Scan Config Name:,Local New Reference,,,,,,,
Scan Config Type:,Slew,Num Section:,1,,,,Scan Config Type:,Slew,Num Section:,1,,,,,
Section Config Type:,Hadamard,,,,,,Section Config Type:,Hadamard,,,,,,,
Start Wavelength (nm):,900,,,,,,Start Wavelength (nm):,900,,,,,,,
End Wavelength (nm):,1700,,,,,,End Wavelength (nm):,1700,,,,,,,
Pattern Width (nm):,7.03,,,,,,Pattern Width (nm):,7.03,,,,,,,
Exposure (ms):,0.635,,,,,,Exposure (ms):,0.635,,,,,,,
Digital Resolution:,228,,,,,,Digital Resolution:,228,,,,,,,
Num Repeats:,6,,,,,,Num Repeats:,6,,,,,,,
PGA Gain:,64,,,,,,PGA Gain:,64,,,,,,,
System Temp (C):,29.91,,,,,,System Temp (C):,25.5,,,,,,,
Humidity (%):,35.18,,,,,,Humidity (%):,46.33,,,,,,,
Lamp Intensity:,1520,,,,,,Lamp Intensity:,1459,,,,,,,
Data Date-Time:,2021/10/29T15:14:28,,,,,,Data Date-Time:,2021/10/29T14:59:55,,,,,,,
Total Measurement Time in sec:,3.1492275,,,,,,,,,,,,,,
,,,,,,,,,,,,,,,
***General Information***,,,,,,,***Calibration Coefficients***,,,,,,,,
Model Name:,NIR-M-R2-OB,,,,,,Shift Vector Coefficients:,-6.20249141707927,0.0552441215585706,-0.000122501697169825,,,,,
Serial Number:,818R045,(95UB121GC2V818R045),,,,,Pixel to Wavelength Coefficients:,1776.51064022294,-0.918730919349196,-0.000243316388033348,,,,,
GUI Version:,3.7.6,,,,,,Versions (Cal/Ref/Cfg):,1,3,1,,,,,
TIVA Version:,2.3.2,,,,,,***Lamp Usage ***,,,,,,,,
DLPC Version:,2.2.0,,,,,,Total Time(hh:mm:ss):,3hr 42min 58sec ,,,,,,,
UUID:,DE:66:30:83:1F:90:60:37,,,,,,***Device/Error/Activation Status***,,,,,,,,
Main Board Version:,D,,,,,,Device Status:,0x00000001,Activation Status:,Activated,,,,,
Detector Board Version:,B,,,,,,Error status:,0x00000000,Error Code:,0x00000000000000000000000000000000,,,,,
,,,,,,,,,Error Details:,Not found,,,,,
***Scan Data***,,,,,,,,,,,,,,,
Wavelength (nm),Absorbance (AU),Reference Signal (unitless),Sample Signal (unitless)
900.813664922249,-0.00598176892127847,3461,3509
904.71879766459,-0.0147385150324883,3795,3926
909.91882846218,-0.0140741526288397,4129,4265
913.813741916224,-0.0132626488049261,4547,4688
917.704275675283,-0.0148895877705653,4960,5133
921.590429739357,-0.00948479327622466,5616,5740
925.472204108447,0.000614326285087702,6367,6358
929.349598782552,0.000483624194635879,7188,7180
933.222613761673,-0.0117118956929828,7646,7855
937.091249045809,-0.00489497763513788,8293,8387
942.242616565792,-0.00250423449026611,9165,9218
946.101032561631,-0.0148725517868233,9501,9832
949.955068862485,-0.0155615785365995,9868,10228
953.804725468354,-0.0190124200803123,10324,10786
957.650002379239,-0.0152136172284871,10799,11184
961.490899595139,-0.0157638723030659,11227,11642
965.327417116055,-0.0155031508023794,11832,12262
969.159554941986,-0.0213502414295912,12205,12820
972.987313072933,-0.0174965713927362,12722,13245
978.084177721996,-0.0207099149290474,13165,13808
981.901716564645,-0.0202454780991522,13600,14249
985.71487571231,-0.0190875961416852,13977,14605
989.52365516499,-0.0227022941245493,14218,14981
993.328054922685,-0.0201111682502758,14558,15248
997.128074985396,-0.0145934603841419,14836,15343
1000.92371535312,-0.0181870518251413,14965,15605
1004.71497602586,-0.0171860996952838,15087,15696
1009.76317739732,-0.0164989496360287,15263,15854
1013.54421878176,-0.0139110759692984,15361,15861
1017.32088047122,-0.0155681751721891,15371,15932
1021.0931624657,-0.0145990455357135,15503,16033
1024.86106476519,-0.0109432128157732,15401,15794
1028.62458736969,-0.0137019777757737,15412,15906
1032.38373027922,-0.0146214703763886,15362,15888
1036.13849349375,-0.0116294744536785,15365,15782
1039.8888770133,-0.0131766113393578,15387,15861
1044.88257551384,-0.0131750394116642,15259,15729
1048.6227397451,-0.0127556512678457,15198,15651
1052.35852428137,-0.0127298674061844,15162,15613
1056.08992912265,-0.0154744083355773,15135,15684
1059.81695426895,-0.013923341141548,15071,15562
1063.53959972027,-0.0100404584569421,15093,15446
1067.2578654766,-0.0162241839900388,15001,15572
1070.97175153795,-0.0114347021681375,15068,15470
1075.91678676088,-0.0112210849155419,15053,15447
1079.62045353393,-0.0127161291911532,15044,15491
1083.31974061199,-0.0153240913961095,14952,15489
1087.01464799507,-0.0131230535551417,15027,15488
1090.70517568317,-0.0139002016314409,15035,15524
1094.39132367628,-0.014286259103894,14981,15482
1098.0730919744,-0.0131631656479324,15078,15542
1101.75048057755,-0.0185560921796309,14936,15588
1105.4234894857,-0.0171371871448741,14957,15559
1110.31402183771,-0.0204854567009573,14762,15475
1113.97681145757,-0.0288914859429145,14552,15553
1117.63522138245,-0.0373386688400674,14246,15525
1121.28925161234,-0.0368299152761902,14135,15386
1124.93890214725,-0.0381329066325158,14078,15370
1128.58417298717,-0.0397445067781519,13920,15254
1132.2250641321,-0.0454604246918568,13747,15264
1135.86157558206,-0.040982730953244,13682,15036
1140.70344465646,-0.0357732696540742,13860,15050
1144.32973681812,-0.0335712039545477,13961,15083
1147.95164928479,-0.0316724612243231,13998,15057
1151.56918205647,-0.0252529660063728,14097,14941
1155.18233513317,-0.026414395223283,14049,14930
1158.79110851489,-0.0293458863202963,14033,15014
1162.39550220162,-0.0309616091538668,13817,14838
1165.99551619337,-0.027318165980692,13878,14779
1169.59115049013,-0.0251264782517743,13935,14765
1174.37851669362,-0.0232908474348342,13940,14708
1177.96393170208,-0.0260462299389025,14011,14877
1181.54496701556,-0.0222084633456867,14066,14804
1185.12162263406,-0.0254257587313353,14214,15071
1188.69389855757,-0.01796968890503,14345,14951
1192.2617947861,-0.0218969259397093,14484,15233
1195.82531131964,-0.0184834056940131,14858,15504
1199.3844481582,-0.0207586649425341,15135,15876
1204.12315108408,-0.0226334719644118,15440,16266
1207.67206863434,-0.0192690589417411,15694,16406
1211.21660648961,-0.0135371336974353,16108,16618
1214.7567646499,-0.0164140931396214,16304,16932
1218.29254311521,-0.0127735365435781,16751,17251
1221.82394188553,-0.0170205000360368,16913,17589
1225.35096096087,-0.0123365549951155,17249,17746
1228.87360034122,-0.0165939990379508,17536,18219
1232.39186002659,-0.0157481309759491,17819,18477
1237.07606008155,-0.0134864541167067,18262,18838
1240.58410047862,-0.0156867111431739,18461,19140
1244.0877611807,-0.0147109033797491,18750,19396
1247.58704218781,-0.0141107567394424,19016,19644
1251.08194349992,-0.0118053310234368,19379,19913
1254.57246511705,-0.0119052198296281,19574,20118
1258.0586070392,-0.0137261216529392,19869,20507
1261.54036926637,-0.0127817828340864,20155,20757
1266.17590604372,-0.0143964431607326,20561,21254
1269.64744898258,-0.0115955079210373,20954,21521
1273.11461222646,-0.0128959037189716,21268,21909
1276.57739577536,-0.0176123152377553,21335,22218
1280.03579962927,-0.0111237664703384,21816,22382
1283.4898237882,-0.0147959603417439,21901,22660
1286.93946825214,-0.0169790935494904,22172,23056
1290.3847330211,-0.0178049591113944,22342,23277
1293.82561809507,-0.0171562353015846,22559,23468
1298.40665200151,-0.0204281586112455,22653,23744
1301.83731778718,-0.0192819412659811,22776,23810
1305.26360387787,-0.0208230827296065,22824,23945
1308.68551027358,-0.0205269253396071,22872,23979
1312.1030369743,-0.0239321429793472,22894,24191
1315.51618398004,-0.0225596117821875,22994,24220
1318.92495129079,-0.0210811041311864,22940,24081
1322.32933890656,-0.0214017816033335,22964,24124
1326.86170953539,-0.022480545470715,22757,23966
1330.25587786286,-0.0238997982516974,22590,23868
1333.64566649535,-0.0201091233794694,22620,23692
1337.03107543285,-0.0251857395036554,22309,23641
1340.41210467537,-0.0246835522519977,22058,23348
1343.7887542229,-0.0265661720159589,21639,23004
1347.16102407545,-0.0258942692420581,21404,22719
1350.52891423301,-0.0255188468577961,21117,22395
1353.89242469559,-0.0246536469078417,20733,21944
1358.3702924535,-0.0249483937997215,20295,21495
1361.72358362778,-0.0247478482114978,20072,21249
1365.07249510707,-0.0252354715422328,19907,21098
1368.41702689139,-0.0286475448141481,19549,20882
1371.75717898071,-0.0248906994210168,19411,20556
1375.09295137506,-0.0257792995207886,19115,20284
1378.42434407441,-0.0320470629233,18712,20145
1381.75135707879,-0.0314672219681724,18391,19773
1385.07399038818,-0.0322380281516069,18026,19415
1389.49735527517,-0.0349214845604749,17604,19078
1392.80976929626,-0.0343278272510846,17240,18658
1396.11780362236,-0.0349463093710672,16863,18276
1399.42145825349,-0.0369664936918691,16613,18089
1402.72073318962,-0.0410454471375181,16152,17753
1406.01562843078,-0.0435513841724165,15927,17607
1409.30614397695,-0.0428759646041987,15651,17275
1412.59227982813,-0.0475712236470151,15221,16983
1416.96698143751,-0.0554217448184141,14723,16727
1420.2428980004,-0.0559796045999913,14385,16364
1423.5144348683,-0.0581570962155712,14132,16157
1426.78159204122,-0.0625881126036961,13805,15945
1430.04436951915,-0.0593792412096306,13596,15588
1433.3027673021,-0.0599685938068842,13372,15352
1436.55678539006,-0.0635592954236401,13128,15197
1439.80642378304,-0.0561799880612394,13150,14966
1443.05168248104,-0.0539839713019105,13063,14792
1447.3718812195,-0.0536730663160924,12847,14537
1450.6069206292,-0.0519192297644681,12828,14457
1453.83758034391,-0.0479934211938997,12709,14194
1457.06386036364,-0.043906805933711,12652,13998
1460.28576068838,-0.0418618846615275,12531,13799
1463.50328131814,-0.0395145266196472,12619,13821
1466.71642225291,-0.0396045427168988,12390,13573
1469.9251834927,-0.0384201599887025,12368,13512
1474.19671895356,-0.0313962119093574,12365,13292
1477.39526090505,-0.0320416942007104,12368,13315
1480.58942316156,-0.0306461659612184,12200,13092
1483.77920572308,-0.0305336445095693,12123,13006
1486.96460858962,-0.0285871200770243,12096,12919
1490.14563176117,-0.0284206156214487,11977,12787
1493.32227523774,-0.0281981793540074,11851,12646
1496.49453901933,-0.0301273220509246,11819,12668
1499.66242310593,-0.0320467902183447,11700,12596
1503.87945569586,-0.0311751282393372,11690,12560
1507.03712049416,-0.0266149124913558,11788,12533
1510.19040559748,-0.0329286581201242,11540,12449
1513.33931100582,-0.0292404848488979,11587,12394
1516.48383671916,-0.0265922272917366,11640,12375
1519.62398273753,-0.0298668718242645,11420,12233
1522.75974906091,-0.0300570599078396,11415,12233
1525.8911356893,-0.0265966322432028,11353,12070
1530.05950500163,-0.0291947446099823,11275,12059
1533.18067234173,-0.025055121475073,11147,11809
1536.29745998684,-0.028202129265116,10955,11690
1539.40986793697,-0.0268308716940706,10733,11417
1542.51789619211,-0.0280822726764028,10644,11355
1545.62154475227,-0.0294832868915319,10563,11305
1548.72081361745,-0.0287631872137347,10413,11126
1551.81570278764,-0.0263490063924266,10184,10821
1554.90621226284,-0.0225967327639951,9961,10493
1559.02007870425,-0.0155246284021194,9782,10138
1562.10036889116,-0.0249746847222781,9579,10146
1565.17627938308,-0.0177250653083307,9386,9777
1568.24781018002,-0.0194775252209901,9200,9622
1571.31496128198,-0.0182071855988868,9109,9499
1574.37773268895,-0.0273530655471354,8845,9420
1577.43612440093,-0.0209333214380388,8728,9159
1580.49013641793,-0.0167238304114864,8584,8921
1584.55533958173,-0.0176013371169958,8317,8661
1587.59913231044,-0.0189358347122999,8235,8602
1590.63854534416,-0.0133639615579815,8064,8316
1593.67357868289,-0.021450333764161,7841,8238
1596.70423232664,-0.0230478133134107,7706,8126
1599.7305062754,-0.0248073184405282,7417,7853
1602.75240052918,-0.0235942375674751,7272,7678
1605.76991508798,-0.0153973151307942,7232,7493
1608.78304995179,-0.0179053932010157,7080,7378
1612.79375024467,-0.014901575230891,6818,7056
1615.79666582019,-0.0294231698436198,6491,6946
1618.79520170071,-0.0301733076797275,6338,6794
1621.78935788626,-0.037417946330991,6057,6602
1624.77913437682,-0.0423132956088301,5912,6517
1627.76453117239,-0.0398754441727058,5813,6372
1630.74554827298,-0.04438186383299,5502,6094
1633.72218567859,-0.0447603690340013,5407,5994
1637.68422269387,-0.0454312180257602,5060,5618
1640.65064081117,-0.0464100744278716,4921,5476
1643.6126792335,-0.0511832635184897,4709,5298
1646.57033796084,-0.0438836930663198,4599,5088
1649.52361699319,-0.0450825652769862,4379,4858
1652.47251633056,-0.0564712291151274,4184,4765
1655.41703597295,-0.0674550336697807,3904,4560
1658.35717592035,-0.0546653452840298,3735,4236
1661.29293617276,-0.0517547891947169,3603,4059
1665.20047031712,-0.0623683272387322,3283,3790
1668.12601128124,-0.0784115613412412,3012,3608
1671.04717255037,-0.0852104919143666,2754,3351
1673.96395412452,-0.0698981736151395,2514,2953
1676.87635600369,-0.0954706265543433,2176,2711
1679.78437818787,-0.122797592672791,1830,2428
1682.68802067706,-0.134339113392251,1531,2086
1685.58728347128,-0.145158343148209,1217,1700
1689.44615433803,-0.0875736711029245,1025,1254
1692.33519784394,-0.126815899995964,808,1082
1695.21986165487,-0.0781605769952174,710,850
1698.10014577081,-0.0250438700507813,657,696
1700.97605019177,-0.117385598717854,522,684
