***Scan Config Information***,,,,,,,***Reference Scan Information***,,,,,,,,
Scan Config Name:,Hadamard 1,,,,,,Scan Config Name:,Local New Reference,,,,,,,
Scan Config Type:,Slew,Num Section:,1,,,,Scan Config Type:,Slew,Num Section:,1,,,,,
Section Config Type:,Hadamard,,,,,,Section Config Type:,Hadamard,,,,,,,
Start Wavelength (nm):,900,,,,,,Start Wavelength (nm):,900,,,,,,,
End Wavelength (nm):,1700,,,,,,End Wavelength (nm):,1700,,,,,,,
Pattern Width (nm):,7.03,,,,,,Pattern Width (nm):,7.03,,,,,,,
Exposure (ms):,0.635,,,,,,Exposure (ms):,0.635,,,,,,,
Digital Resolution:,228,,,,,,Digital Resolution:,228,,,,,,,
Num Repeats:,6,,,,,,Num Repeats:,6,,,,,,,
PGA Gain:,64,,,,,,PGA Gain:,64,,,,,,,
System Temp (C):,31.78,,,,,,System Temp (C):,25.87,,,,,,,
Humidity (%):,17.63,,,,,,Humidity (%):,26.83,,,,,,,
Lamp Intensity:,1550,,,,,,Lamp Intensity:,1464,,,,,,,
Data Date-Time:,2021/10/27T15:49:31,,,,,,Data Date-Time:,2021/10/27T15:20:30,,,,,,,
Total Measurement Time in sec:,3.1398891,,,,,,,,,,,,,,
,,,,,,,,,,,,,,,
***General Information***,,,,,,,***Calibration Coefficients***,,,,,,,,
Model Name:,NIR-M-R2-OB,,,,,,Shift Vector Coefficients:,-6.20249141707927,0.0552441215585706,-0.000122501697169825,,,,,
Serial Number:,818R045,(95UB121GC2V818R045),,,,,Pixel to Wavelength Coefficients:,1776.51064022294,-0.918730919349196,-0.000243316388033348,,,,,
GUI Version:,3.7.6,,,,,,Versions (Cal/Ref/Cfg):,1,3,1,,,,,
TIVA Version:,2.3.2,,,,,,***Lamp Usage ***,,,,,,,,
DLPC Version:,2.2.0,,,,,,Total Time(hh:mm:ss):,3hr 40min 35sec ,,,,,,,
UUID:,DE:66:30:83:1F:90:60:37,,,,,,***Device/Error/Activation Status***,,,,,,,,
Main Board Version:,D,,,,,,Device Status:,0x00000001,Activation Status:,Activated,,,,,
Detector Board Version:,B,,,,,,Error status:,0x00000000,Error Code:,0x00000000000000000000000000000000,,,,,
,,,,,,,,,Error Details:,Not found,,,,,
***Scan Data***,,,,,,,,,,,,,,,
Wavelength (nm),Absorbance (AU),Reference Signal (unitless),Sample Signal (unitless)
900.813664922249,-0.229670117179989,3907,6630
904.71879766459,-0.214203977613925,4241,6945
909.91882846218,-0.204641766775095,4783,7662
913.813741916224,-0.194855072727514,5247,8218
917.704275675283,-0.210680713357925,5806,9431
921.590429739357,-0.199001836007736,6615,10460
925.472204108447,-0.208131456654301,7301,11790
929.349598782552,-0.200733245249007,8062,12799
933.222613761673,-0.20542665395415,8753,14047
937.091249045809,-0.211726134676915,9445,15379
942.242616565792,-0.218429090358219,10098,16698
946.101032561631,-0.214185322608733,10737,17582
949.955068862485,-0.20641089975465,11368,18285
953.804725468354,-0.211968065166239,11763,19164
957.650002379239,-0.212739024144653,12410,20254
961.490899595139,-0.214432436444933,12828,21018
965.327417116055,-0.211846979012547,13467,21934
969.159554941986,-0.206587015681551,14109,22703
972.987313072933,-0.206982882737123,14704,23682
978.084177721996,-0.20487365609874,15329,24569
981.901716564645,-0.199403303502033,15958,25257
985.71487571231,-0.203435014971166,16260,25975
989.52365516499,-0.196505636140773,16837,26471
993.328054922685,-0.195703972255109,17123,26871
997.128074985396,-0.193757062118579,17383,27157
1000.92371535312,-0.191285519224286,17694,27486
1004.71497602586,-0.192333103474445,18011,28046
1009.76317739732,-0.193102262986319,17949,27999
1013.54421878176,-0.187228845731096,18016,27726
1017.32088047122,-0.183086747006315,18085,27568
1021.0931624657,-0.174634135452506,18112,27077
1024.86106476519,-0.175199359881143,18035,26997
1028.62458736969,-0.17941410986315,18011,27224
1032.38373027922,-0.185640792461635,17917,27473
1036.13849349375,-0.194398053495968,17900,28006
1039.8888770133,-0.197098158573389,17918,28209
1044.88257551384,-0.192101520506938,17948,27933
1048.6227397451,-0.192505609215143,17697,27568
1052.35852428137,-0.189789485963189,17684,27376
1056.08992912265,-0.187754615052094,17671,27228
1059.81695426895,-0.189508797084074,17603,27233
1063.53959972027,-0.189322477489757,17650,27294
1067.2578654766,-0.190893615135673,17690,27455
1070.97175153795,-0.19434998142079,17723,27726
1075.91678676088,-0.195850582358687,17702,27789
1079.62045353393,-0.19723106225719,17689,27857
1083.31974061199,-0.192549965530208,17821,27764
1087.01464799507,-0.196072321082503,17763,27899
1090.70517568317,-0.199951986359179,17694,28040
1094.39132367628,-0.196079259288564,17785,27934
1098.0730919744,-0.195500818365899,17722,27798
1101.75048057755,-0.19177244208226,17833,27733
1105.4234894857,-0.191890747724848,17823,27725
1110.31402183771,-0.206488598359194,17554,28240
1113.97681145757,-0.198336318258187,17556,27718
1117.63522138245,-0.203058519084986,17410,27788
1121.28925161234,-0.202302947446866,17215,27429
1124.93890214725,-0.197744146647607,17240,27182
1128.58417298717,-0.195849771623986,17137,26902
1132.2250641321,-0.192428586253881,17069,26585
1135.86157558206,-0.18881250969914,17090,26397
1140.70344465646,-0.18774355992684,17308,26668
1144.32973681812,-0.189778850035027,17344,26849
1147.95164928479,-0.197125036375738,17290,27222
1151.56918205647,-0.196176264729966,17345,27249
1155.18233513317,-0.201756260165389,17341,27595
1158.79110851489,-0.203042818196775,17207,27463
1162.39550220162,-0.197636624196707,17243,27180
1165.99551619337,-0.20172539182897,17209,27383
1169.59115049013,-0.195292817213384,17439,27341
1174.37851669362,-0.194638817809067,17487,27375
1177.96393170208,-0.186744690358927,17597,27051
1181.54496701556,-0.191485422933232,17608,27365
1185.12162263406,-0.190349591869888,18007,27912
1188.69389855757,-0.197113712463031,18059,28432
1192.2617947861,-0.194454161285574,18423,28828
1195.82531131964,-0.195256041182802,18611,29176
1199.3844481582,-0.190718087113734,18918,29349
1204.12315108408,-0.196327767527476,19071,29971
1207.67206863434,-0.19726400114025,19569,30820
1211.21660648961,-0.199121310007175,19825,31357
1214.7567646499,-0.195983518598476,20184,31695
1218.29254311521,-0.193091013201971,20558,32068
1221.82394188553,-0.196412478159491,20771,32649
1225.35096096087,-0.194285180752145,21052,32929
1228.87360034122,-0.197654832400687,21301,33578
1232.39186002659,-0.204639259641017,21523,34478
1237.07606008155,-0.198774408858036,22020,34801
1240.58410047862,-0.200890884529763,22156,35187
1244.0877611807,-0.198655379154077,22533,35602
1247.58704218781,-0.199937223384315,22731,36021
1251.08194349992,-0.20023941373668,22975,36433
1254.57246511705,-0.199051993712029,23251,36770
1258.0586070392,-0.20168430252109,23580,37517
1261.54036926637,-0.205907200595597,23856,38327
1266.17590604372,-0.207945959841907,24326,39266
1269.64744898258,-0.20441381523831,24564,39329
1273.11461222646,-0.202079441007388,24800,39494
1276.57739577536,-0.196441763342128,25222,39648
1280.03579962927,-0.193331051752735,25345,39557
1283.4898237882,-0.189399939110689,25633,39646
1286.93946825214,-0.191068129219632,25755,39988
1290.3847330211,-0.192989707880966,25926,40432
1293.82561809507,-0.197837417391428,25980,40971
1298.40665200151,-0.198046998500036,26285,41472
1301.83731778718,-0.202358446475965,26341,41975
1305.26360387787,-0.208214162615112,26447,42716
1308.68551027358,-0.211679354225605,26426,43024
1312.1030369743,-0.21098941222386,26516,43102
1315.51618398004,-0.21261179530444,26487,43216
1318.92495129079,-0.213912490860759,26585,43506
1322.32933890656,-0.215049479908501,26471,43433
1326.86170953539,-0.220090841343447,26092,43311
1330.25587786286,-0.219984735608349,25964,43088
1333.64566649535,-0.219933426911816,25679,42610
1337.03107543285,-0.217452062633921,25594,42227
1340.41210467537,-0.223652904113391,25175,42133
1343.7887542229,-0.221105344332152,25025,41637
1347.16102407545,-0.22108536098514,24826,41304
1350.52891423301,-0.220638038663353,24570,40836
1353.89242469559,-0.223030065701034,24231,40495
1358.3702924535,-0.220675610223331,23873,39681
1361.72358362778,-0.219603718047484,23584,39104
1365.07249510707,-0.216944223827977,23545,38801
1368.41702689139,-0.218586424783896,23224,38417
1371.75717898071,-0.213666222191828,23049,37698
1375.09295137506,-0.213931703880619,22785,37289
1378.42434407441,-0.211836213739115,22544,36717
1381.75135707879,-0.213560162166909,22048,36052
1385.07399038818,-0.216232472468528,21652,35623
1389.49735527517,-0.217873883448503,21118,34876
1392.80976929626,-0.217349431565508,20647,34057
1396.11780362236,-0.219806699377702,20337,33736
1399.42145825349,-0.217091308365896,20120,33168
1402.72073318962,-0.217143854029293,19898,32806
1406.01562843078,-0.217654341393852,19768,32630
1409.30614397695,-0.213662691620789,19451,31813
1412.59227982813,-0.211451401233112,19259,31339
1416.96698143751,-0.208187805545623,19008,30699
1420.2428980004,-0.211810897761256,18645,30365
1423.5144348683,-0.213985870447884,18426,30159
1426.78159204122,-0.215916783652808,18281,30055
1430.04436951915,-0.220638091530402,18105,30091
1433.3027673021,-0.211066585750517,18327,29796
1436.55678539006,-0.208769020871244,18444,29828
1439.80642378304,-0.207623007189854,18321,29551
1443.05168248104,-0.197552976634818,18391,28984
1447.3718812195,-0.180103282765027,18030,27296
1450.6069206292,-0.152748397291655,18033,25634
1453.83758034391,-0.147696772390237,17686,24850
1457.06386036364,-0.160255765028967,17688,25582
1460.28576068838,-0.188731516926942,17472,26982
1463.50328131814,-0.215908304857298,17254,28366
1466.71642225291,-0.22909941255944,16988,28790
1469.9251834927,-0.23417813473251,16773,28760
1474.19671895356,-0.230269152179878,16488,28018
1477.39526090505,-0.224324128701133,16235,27213
1480.58942316156,-0.208314663749686,16022,25884
1483.77920572308,-0.192971465498044,15492,24159
1486.96460858962,-0.174644507753548,15335,22926
1490.14563176117,-0.151581951729835,15114,21427
1493.32227523774,-0.127721070093883,14820,19887
1496.49453901933,-0.123821690656264,14501,19285
1499.66242310593,-0.126220398191616,14380,19230
1503.87945569586,-0.147754120152713,14243,20015
1507.03712049416,-0.157799618375805,14176,20387
1510.19040559748,-0.170363390349272,13967,20676
1513.33931100582,-0.167604251941753,13814,20320
1516.48383671916,-0.159379359723563,13722,19806
1519.62398273753,-0.164849224128575,13488,19715
1522.75974906091,-0.184380318676899,13216,20206
1525.8911356893,-0.209540844209394,13077,21186
1530.05950500163,-0.231585545001634,12817,21846
1533.18067234173,-0.239009784041463,12425,21543
1536.29745998684,-0.232387463050747,12360,21106
1539.40986793697,-0.229672161308646,12081,20501
1542.51789619211,-0.225818030495643,11741,19748
1545.62154475227,-0.227275775010972,11563,19514
1548.72081361745,-0.215169992356106,11428,18756
1551.81570278764,-0.216080443558204,11308,18598
1554.90621226284,-0.230070201187721,11135,18913
1559.02007870425,-0.248159813253474,10862,19234
1562.10036889116,-0.258320978950806,10805,19586
1565.17627938308,-0.278807788194081,10545,20038
1568.24781018002,-0.286514784108045,10435,20184
1571.31496128198,-0.301308026267855,10150,20313
1574.37773268895,-0.307674034192595,10022,20353
1577.43612440093,-0.309260932978633,9852,20081
1580.49013641793,-0.310475390230329,9733,19894
1584.55533958173,-0.313501685635976,9405,19358
1587.59913231044,-0.314352385389567,9181,18934
1590.63854534416,-0.313948009380679,8976,18494
1593.67357868289,-0.322808688645322,8731,18360
1596.70423232664,-0.319795255720747,8504,17759
1599.7305062754,-0.311300227279015,8504,17415
1602.75240052918,-0.312775146170237,8153,16753
1605.76991508798,-0.312194167141278,8007,16431
1608.78304995179,-0.312476033198683,7826,16070
1612.79375024467,-0.311602634874392,7426,15218
1615.79666582019,-0.301235134935201,7408,14823
1618.79520170071,-0.315212917453148,7064,14597
1621.78935788626,-0.305468728087645,6814,13768
1624.77913437682,-0.307384372867885,6649,13494
1627.76453117239,-0.303860602866293,6423,12930
1630.74554827298,-0.299809919662555,6238,12441
1633.72218567859,-0.293947200725568,6120,12042
1637.68422269387,-0.302468685002705,5726,11490
1640.65064081117,-0.309617798944654,5508,11236
1643.6126792335,-0.322550943838928,5049,10611
1646.57033796084,-0.322210770046127,4852,10189
1649.52361699319,-0.328046165887224,4643,9882
1652.47251633056,-0.331644426858528,4265,9153
1655.41703597295,-0.327633412484912,4187,8903
1658.35717592035,-0.330947918688624,3835,8217
1661.29293617276,-0.314066042982528,3774,7778
1665.20047031712,-0.308048421763702,3468,7049
1668.12601128124,-0.305324660890181,3220,6504
1671.04717255037,-0.310213224930683,3065,6261
1673.96395412452,-0.33927560558802,2770,6050
1676.87635600369,-0.352678480618617,2431,5476
1679.78437818787,-0.36650270037555,2108,4902
1682.68802067706,-0.381337492259841,1733,4170
1685.58728347128,-0.447936296051873,1354,3798
1689.44615433803,-0.423753453042452,1081,2868
1692.33519784394,-0.451337517995579,879,2485
1695.21986165487,-0.418395330075465,846,2217
1698.10014577081,-0.454598171855383,587,1672
1700.97605019177,-0.484978052587452,493,1506
