***Scan Config Information***,,,,,,,***Reference Scan Information***,,,,,,,,
Scan Config Name:,Hadamard 1,,,,,,Scan Config Name:,Local New Reference,,,,,,,
Scan Config Type:,Slew,Num Section:,1,,,,Scan Config Type:,Slew,Num Section:,1,,,,,
Section Config Type:,Hadamard,,,,,,Section Config Type:,Hadamard,,,,,,,
Start Wavelength (nm):,900,,,,,,Start Wavelength (nm):,900,,,,,,,
End Wavelength (nm):,1700,,,,,,End Wavelength (nm):,1700,,,,,,,
Pattern Width (nm):,7.03,,,,,,Pattern Width (nm):,7.03,,,,,,,
Exposure (ms):,0.635,,,,,,Exposure (ms):,0.635,,,,,,,
Digital Resolution:,228,,,,,,Digital Resolution:,228,,,,,,,
Num Repeats:,6,,,,,,Num Repeats:,6,,,,,,,
PGA Gain:,64,,,,,,PGA Gain:,64,,,,,,,
System Temp (C):,32.23,,,,,,System Temp (C):,25.87,,,,,,,
Humidity (%):,16.03,,,,,,Humidity (%):,26.83,,,,,,,
Lamp Intensity:,1557,,,,,,Lamp Intensity:,1464,,,,,,,
Data Date-Time:,2021/10/27T16:26:51,,,,,,Data Date-Time:,2021/10/27T15:20:30,,,,,,,
Total Measurement Time in sec:,3.1616103,,,,,,,,,,,,,,
,,,,,,,,,,,,,,,
***General Information***,,,,,,,***Calibration Coefficients***,,,,,,,,
Model Name:,NIR-M-R2-OB,,,,,,Shift Vector Coefficients:,-6.20249141707927,0.0552441215585706,-0.000122501697169825,,,,,
Serial Number:,818R045,(95UB121GC2V818R045),,,,,Pixel to Wavelength Coefficients:,1776.51064022294,-0.918730919349196,-0.000243316388033348,,,,,
GUI Version:,3.7.6,,,,,,Versions (Cal/Ref/Cfg):,1,3,1,,,,,
TIVA Version:,2.3.2,,,,,,***Lamp Usage ***,,,,,,,,
DLPC Version:,2.2.0,,,,,,Total Time(hh:mm:ss):,3hr 41min 37sec ,,,,,,,
UUID:,DE:66:30:83:1F:90:60:37,,,,,,***Device/Error/Activation Status***,,,,,,,,
Main Board Version:,D,,,,,,Device Status:,0x00000001,Activation Status:,Activated,,,,,
Detector Board Version:,B,,,,,,Error status:,0x00000000,Error Code:,0x00000000000000000000000000000000,,,,,
,,,,,,,,,Error Details:,Not found,,,,,
***Scan Data***,,,,,,,,,,,,,,,
Wavelength (nm),Absorbance (AU),Reference Signal (unitless),Sample Signal (unitless)
900.813664922249,-0.0826503060715658,3907,4726
904.71879766459,-0.0694993682843135,4241,4977
909.91882846218,-0.0832781099957789,4783,5794
913.813741916224,-0.0762468127085754,5247,6254
917.704275675283,-0.0709885484043831,5806,6837
921.590429739357,-0.0587954522612877,6615,7574
925.472204108447,-0.0665982420747271,7301,8511
929.349598782552,-0.0491968592062196,8062,9029
933.222613761673,-0.073286659483612,8753,10362
937.091249045809,-0.0865896769261588,9445,11529
942.242616565792,-0.0776877379915926,10098,12076
946.101032561631,-0.0631687024002977,10737,12418
949.955068862485,-0.0664990351744549,11368,13249
953.804725468354,-0.078238754301923,11763,14085
957.650002379239,-0.0764312414869345,12410,14798
961.490899595139,-0.0745694668678646,12828,15231
965.327417116055,-0.0747405353401687,13467,15996
969.159554941986,-0.060018781076889,14109,16200
972.987313072933,-0.0576410675843562,14704,16791
978.084177721996,-0.0684054363563727,15329,17944
981.901716564645,-0.0719641053466208,15958,18834
985.71487571231,-0.0624131388932484,16260,18773
989.52365516499,-0.0616489351803399,16837,19405
993.328054922685,-0.0710399061741048,17123,20166
997.128074985396,-0.0568255093680731,17383,19813
1000.92371535312,-0.0661465959251654,17694,20605
1004.71497602586,-0.0616895229518169,18011,20760
1009.76317739732,-0.0645864594682578,17949,20827
1013.54421878176,-0.0586513490735947,18016,20621
1017.32088047122,-0.0646939254847619,18085,20990
1021.0931624657,-0.0637148541601456,18112,20974
1024.86106476519,-0.057940772586342,18035,20609
1028.62458736969,-0.0632348336008763,18011,20834
1032.38373027922,-0.0655698980375066,17917,20837
1036.13849349375,-0.0679784424653523,17900,20933
1039.8888770133,-0.0672721479404349,17918,20920
1044.88257551384,-0.0578860705584532,17948,20507
1048.6227397451,-0.0576881511835306,17697,20211
1052.35852428137,-0.071983559858328,17684,20872
1056.08992912265,-0.0642384385799062,17671,20488
1059.81695426895,-0.067457544107809,17603,20561
1063.53959972027,-0.0599804670586502,17650,20264
1067.2578654766,-0.0608792610585967,17690,20352
1070.97175153795,-0.0599844914777589,17723,20348
1075.91678676088,-0.0571785088640548,17702,20193
1079.62045353393,-0.0565071045010619,17689,20147
1083.31974061199,-0.0590598585810665,17821,20417
1087.01464799507,-0.0626187096782986,17763,20518
1090.70517568317,-0.0622084462005478,17694,20419
1094.39132367628,-0.053962466998967,17785,20138
1098.0730919744,-0.0522131508539206,17722,19986
1101.75048057755,-0.0474540409883556,17833,19892
1105.4234894857,-0.0527335015573612,17823,20124
1110.31402183771,-0.0590791663213107,17554,20112
1113.97681145757,-0.0624067505114398,17556,20269
1117.63522138245,-0.0717170845460558,17410,20536
1121.28925161234,-0.0714820286126119,17215,20295
1124.93890214725,-0.0776882094378027,17240,20617
1128.58417298717,-0.077543570707383,17137,20487
1132.2250641321,-0.0698413119799343,17069,20047
1135.86157558206,-0.080808808612768,17090,20585
1140.70344465646,-0.0666097074703416,17308,20177
1144.32973681812,-0.0600746585082899,17344,19917
1147.95164928479,-0.0586727455261927,17290,19791
1151.56918205647,-0.0612472532049935,17345,19972
1155.18233513317,-0.0544210052361309,17341,19656
1158.79110851489,-0.0571487637669952,17207,19627
1162.39550220162,-0.0610820414933046,17243,19847
1165.99551619337,-0.0566112120495075,17209,19605
1169.59115049013,-0.054814476925996,17439,19785
1174.37851669362,-0.045422084842959,17487,19415
1177.96393170208,-0.0456859125764478,17597,19549
1181.54496701556,-0.0485356865928266,17608,19690
1185.12162263406,-0.0477330856221828,18007,20099
1188.69389855757,-0.0553778233047359,18059,20515
1192.2617947861,-0.0428197489288354,18423,20332
1195.82531131964,-0.0545950690793677,18611,21104
1199.3844481582,-0.0518101158516027,18918,21315
1204.12315108408,-0.0522871341205156,19071,21511
1207.67206863434,-0.0551754213626987,19569,22220
1211.21660648961,-0.0496481140220943,19825,22226
1214.7567646499,-0.0434728659784713,20184,22309
1218.29254311521,-0.04904898715889,20558,23016
1221.82394188553,-0.0556753688167836,20771,23612
1225.35096096087,-0.0499681448164421,21052,23619
1228.87360034122,-0.0504519540764573,21301,23925
1232.39186002659,-0.0600753808567494,21523,24716
1237.07606008155,-0.0545838347168779,22020,24969
1240.58410047862,-0.0557540514308412,22156,25191
1244.0877611807,-0.0611007253337833,22533,25937
1247.58704218781,-0.0601217917072696,22731,26106
1251.08194349992,-0.0594426828506582,22975,26345
1254.57246511705,-0.0608821502004141,23251,26750
1258.0586070392,-0.0574021733587478,23580,26912
1261.54036926637,-0.0635316944058563,23856,27614
1266.17590604372,-0.0660378815979426,24326,28321
1269.64744898258,-0.0622386552192676,24564,28349
1273.11461222646,-0.0680661059252172,24800,29008
1276.57739577536,-0.0649250226768266,25222,29289
1280.03579962927,-0.0664887905969787,25345,29538
1283.4898237882,-0.0699978509461001,25633,30116
1286.93946825214,-0.0685985813951212,25755,30162
1290.3847330211,-0.0735301577243282,25926,30709
1293.82561809507,-0.0735448027123881,25980,30774
1298.40665200151,-0.0698708515659921,26285,30873
1301.83731778718,-0.0760760367873584,26341,31384
1305.26360387787,-0.0732511656823116,26447,31306
1308.68551027358,-0.0734018909203657,26426,31292
1312.1030369743,-0.0703263126263637,26516,31177
1315.51618398004,-0.0800766651324334,26487,31850
1318.92495129079,-0.0740184305949218,26585,31525
1322.32933890656,-0.0770129284017909,26471,31607
1326.86170953539,-0.0813755725739814,26092,31469
1330.25587786286,-0.0770041026486479,25964,31001
1333.64566649535,-0.0817275449323044,25679,30996
1337.03107543285,-0.0833355897581362,25594,31008
1340.41210467537,-0.0834015501027507,25175,30505
1343.7887542229,-0.0833407868758131,25025,30319
1347.16102407545,-0.0818814168632486,24826,29977
1350.52891423301,-0.0755870643042268,24570,29241
1353.89242469559,-0.0776371181829992,24231,28974
1358.3702924535,-0.0771054520579377,23873,28511
1361.72358362778,-0.0833839710294949,23584,28576
1365.07249510707,-0.0798570474714344,23545,28298
1368.41702689139,-0.0787166081766198,23224,27839
1371.75717898071,-0.0713096569711413,23049,27162
1375.09295137506,-0.0780361050231623,22785,27270
1378.42434407441,-0.0681944235749015,22544,26377
1381.75135707879,-0.0744179269679595,22048,26169
1385.07399038818,-0.0743337013669832,21652,25694
1389.49735527517,-0.0690978548050924,21118,24760
1392.80976929626,-0.0687968636829869,20647,24191
1396.11780362236,-0.0692561195482952,20337,23853
1399.42145825349,-0.0627202570838285,20120,23246
1402.72073318962,-0.07001650442926,19898,23379
1406.01562843078,-0.0585682656563733,19768,22622
1409.30614397695,-0.0612285249700678,19451,22396
1412.59227982813,-0.0577494645463657,19259,21998
1416.96698143751,-0.0510509639777037,19008,21379
1420.2428980004,-0.0582655513169546,18645,21322
1423.5144348683,-0.0610276902445097,18426,21206
1426.78159204122,-0.0628378836610159,18281,21127
1430.04436951915,-0.0545904202175614,18105,20530
1433.3027673021,-0.0427327262010213,18327,20222
1436.55678539006,-0.0390445267854952,18444,20179
1439.80642378304,-0.0441830159402523,18321,20283
1443.05168248104,-0.0364897905592795,18391,20003
1447.3718812195,-0.0370130599361629,18030,19634
1450.6069206292,-0.0407507188922095,18033,19807
1453.83758034391,-0.0435615678833464,17686,19552
1457.06386036364,-0.0364811908280238,17688,19238
1460.28576068838,-0.0383950524800385,17472,19087
1463.50328131814,-0.0522307243660865,17254,19459
1466.71642225291,-0.0507091733755645,16988,19092
1469.9251834927,-0.05164420104339,16773,18891
1474.19671895356,-0.0505667935506993,16488,18524
1477.39526090505,-0.0610408092236361,16235,18685
1480.58942316156,-0.0488393398196363,16022,17929
1483.77920572308,-0.0664418938381492,15492,18053
1486.96460858962,-0.067436053568383,15335,17911
1490.14563176117,-0.0642786087569396,15114,17525
1493.32227523774,-0.0730327985750092,14820,17534
1496.49453901933,-0.0778764944774601,14501,17349
1499.66242310593,-0.0902389160332569,14380,17701
1503.87945569586,-0.0815480621848331,14243,17185
1507.03712049416,-0.0874452940724585,14176,17338
1510.19040559748,-0.0811873720370348,13967,16838
1513.33931100582,-0.0948553557863301,13814,17186
1516.48383671916,-0.103431243494969,13722,17412
1519.62398273753,-0.101522033150014,13488,17040
1522.75974906091,-0.102811056895968,13216,16746
1525.8911356893,-0.111866566684561,13077,16919
1530.05950500163,-0.118504120867463,12817,16838
1533.18067234173,-0.115781226889917,12425,16221
1536.29745998684,-0.122215878272827,12360,16377
1539.40986793697,-0.116361751044822,12081,15793
1542.51789619211,-0.136121571307491,11741,16063
1545.62154475227,-0.132746132629912,11563,15697
1548.72081361745,-0.137071048845951,11428,15669
1551.81570278764,-0.134275902835477,11308,15405
1554.90621226284,-0.132574242968968,11135,15110
1559.02007870425,-0.127698764974443,10862,14575
1562.10036889116,-0.125129615413028,10805,14413
1565.17627938308,-0.12911940660005,10545,14196
1568.24781018002,-0.13091142610711,10435,14106
1571.31496128198,-0.124703340840092,10150,13526
1574.37773268895,-0.125112038478877,10022,13368
1577.43612440093,-0.137869678650307,9852,13533
1580.49013641793,-0.130646001998243,9733,13149
1584.55533958173,-0.128594377590802,9405,12646
1587.59913231044,-0.126732564192549,9181,12292
1590.63854534416,-0.126062209420663,8976,11999
1593.67357868289,-0.121781125057148,8731,11557
1596.70423232664,-0.132168387668771,8504,11529
1599.7305062754,-0.138116951411,8504,11688
1602.75240052918,-0.122829534782015,8153,10818
1605.76991508798,-0.132240009320692,8007,10857
1608.78304995179,-0.126572726000806,7826,10474
1612.79375024467,-0.119495088037677,7426,9778
1615.79666582019,-0.124087840144827,7408,9858
1618.79520170071,-0.121156668237342,7064,9337
1621.78935788626,-0.125496065478913,6814,9097
1624.77913437682,-0.125754435886266,6649,8882
1627.76453117239,-0.111392491846514,6423,8301
1630.74554827298,-0.120354464791145,6238,8230
1633.72218567859,-0.135818346840151,6120,8367
1637.68422269387,-0.139940638253645,5726,7903
1640.65064081117,-0.146116771539998,5508,7711
1643.6126792335,-0.155572366609963,5049,7224
1646.57033796084,-0.196148152241613,4852,7622
1649.52361699319,-0.176371780853724,4643,6969
1652.47251633056,-0.214185195193972,4265,6984
1655.41703597295,-0.203652971399126,4187,6692
1658.35717592035,-0.222007263650669,3835,6394
1661.29293617276,-0.214467585081356,3774,6184
1665.20047031712,-0.204995702777885,3468,5560
1668.12601128124,-0.207311486152627,3220,5190
1671.04717255037,-0.201455045994272,3065,4874
1673.96395412452,-0.226837111501664,2770,4670
1676.87635600369,-0.257667717642852,2431,4400
1679.78437818787,-0.26719400048599,2108,3900
1682.68802067706,-0.245785966568926,1733,3052
1685.58728347128,-0.297487343983571,1354,2686
1689.44615433803,-0.286112746026998,1081,2089
1692.33519784394,-0.338406629668754,879,1916
1695.21986165487,-0.25902085265647,846,1536
1698.10014577081,-0.239109676753125,587,1018
1700.97605019177,-0.303226735208045,493,991
