***Scan Config Information***,,,,,,,***Reference Scan Information***,,,,,,,,
Scan Config Name:,Hadamard 1,,,,,,Scan Config Name:,Local New Reference,,,,,,,
Scan Config Type:,Slew,Num Section:,1,,,,Scan Config Type:,Slew,Num Section:,1,,,,,
Section Config Type:,Hadamard,,,,,,Section Config Type:,Hadamard,,,,,,,
Start Wavelength (nm):,900,,,,,,Start Wavelength (nm):,900,,,,,,,
End Wavelength (nm):,1700,,,,,,End Wavelength (nm):,1700,,,,,,,
Pattern Width (nm):,7.03,,,,,,Pattern Width (nm):,7.03,,,,,,,
Exposure (ms):,0.635,,,,,,Exposure (ms):,0.635,,,,,,,
Digital Resolution:,228,,,,,,Digital Resolution:,228,,,,,,,
Num Repeats:,6,,,,,,Num Repeats:,6,,,,,,,
PGA Gain:,64,,,,,,PGA Gain:,64,,,,,,,
System Temp (C):,31.19,,,,,,System Temp (C):,25.5,,,,,,,
Humidity (%):,32.32,,,,,,Humidity (%):,46.33,,,,,,,
Lamp Intensity:,1539,,,,,,Lamp Intensity:,1459,,,,,,,
Data Date-Time:,2021/10/29T15:27:28,,,,,,Data Date-Time:,2021/10/29T14:59:55,,,,,,,
Total Measurement Time in sec:,3.1602962,,,,,,,,,,,,,,
,,,,,,,,,,,,,,,
***General Information***,,,,,,,***Calibration Coefficients***,,,,,,,,
Model Name:,NIR-M-R2-OB,,,,,,Shift Vector Coefficients:,-6.20249141707927,0.0552441215585706,-0.000122501697169825,,,,,
Serial Number:,818R045,(95UB121GC2V818R045),,,,,Pixel to Wavelength Coefficients:,1776.51064022294,-0.918730919349196,-0.000243316388033348,,,,,
GUI Version:,3.7.6,,,,,,Versions (Cal/Ref/Cfg):,1,3,1,,,,,
TIVA Version:,2.3.2,,,,,,***Lamp Usage ***,,,,,,,,
DLPC Version:,2.2.0,,,,,,Total Time(hh:mm:ss):,3hr 43min 24sec ,,,,,,,
UUID:,DE:66:30:83:1F:90:60:37,,,,,,***Device/Error/Activation Status***,,,,,,,,
Main Board Version:,D,,,,,,Device Status:,0x00000001,Activation Status:,Activated,,,,,
Detector Board Version:,B,,,,,,Error status:,0x00000000,Error Code:,0x00000000000000000000000000000000,,,,,
,,,,,,,,,Error Details:,Not found,,,,,
***Scan Data***,,,,,,,,,,,,,,,
Wavelength (nm),Absorbance (AU),Reference Signal (unitless),Sample Signal (unitless)
900.813664922249,-0.00325034808184882,3461,3487
904.71879766459,0.00901921913577326,3795,3717
909.91882846218,-0.00636914009159315,4129,4190
913.813741916224,-0.00635263597996648,4547,4614
917.704275675283,-0.000612483505025903,4960,4967
921.590429739357,-0.00751313692497537,5616,5714
925.472204108447,-0.0019056989508309,6367,6395
929.349598782552,0.0098381148997174,7188,7027
933.222613761673,-0.0037890376795137,7646,7713
937.091249045809,-0.00385810360339112,8293,8367
942.242616565792,0.00500427162142241,9165,9060
946.101032561631,0.000457344694648398,9501,9491
949.955068862485,-0.0092744739248381,9868,10081
953.804725468354,-0.0154139999323439,10324,10697
957.650002379239,-0.0115088423012407,10799,11089
961.490899595139,-0.013969573388957,11227,11594
965.327417116055,-0.0099066327889156,11832,12105
969.159554941986,-0.0109277707209483,12205,12516
972.987313072933,-0.0111216738753238,12722,13052
978.084177721996,-0.0139264021441559,13165,13594
981.901716564645,-0.0166339880229138,13600,14131
985.71487571231,-0.0130389955209448,13977,14403
989.52365516499,-0.0158062669955982,14218,14745
993.328054922685,-0.0111325898970464,14558,14936
997.128074985396,-0.00670996361386026,14836,15067
1000.92371535312,-0.00944436467670091,14965,15294
1004.71497602586,-0.00620206667864993,15087,15304
1009.76317739732,-0.00275131147414129,15263,15360
1013.54421878176,0.00314964547267076,15361,15250
1017.32088047122,0.00873298655572531,15371,15065
1021.0931624657,0.019069650346113,15503,14837
1024.86106476519,0.0208524503816704,15401,14679
1028.62458736969,0.0180964234380484,15412,14783
1032.38373027922,0.0154823544640761,15362,14824
1036.13849349375,0.0163882419490405,15365,14796
1039.8888770133,0.014463472029568,15387,14883
1044.88257551384,0.0142632089352755,15259,14766
1048.6227397451,0.011935738312693,15198,14786
1052.35852428137,0.00914703608689236,15162,14846
1056.08992912265,0.00476062494953942,15135,14970
1059.81695426895,0.00121198538723852,15071,15029
1063.53959972027,-0.00189498091248231,15093,15159
1067.2578654766,-0.0093369463458404,15001,15327
1070.97175153795,-0.0110414975401881,15068,15456
1075.91678676088,-0.00621597542506593,15053,15270
1079.62045353393,-0.012211200786888,15044,15473
1083.31974061199,-0.0170869592114237,14952,15552
1087.01464799507,-0.0117187501848134,15027,15438
1090.70517568317,-0.011909372163705,15035,15453
1094.39132367628,-0.0147628742508135,14981,15499
1098.0730919744,-0.00787779729460945,15078,15354
1101.75048057755,-0.0124960708512892,14936,15372
1105.4234894857,-0.00905142173015488,14957,15272
1110.31402183771,-0.0137257629977103,14762,15236
1113.97681145757,-0.0163417782835982,14552,15110
1117.63522138245,-0.0139197327189797,14246,14710
1121.28925161234,-0.0134021330670307,14135,14578
1124.93890214725,-0.00685581283762144,14078,14302
1128.58417298717,0.000874460635818621,13920,13892
1132.2250641321,0.000727223284027426,13747,13724
1135.86157558206,0.00120787535317124,13682,13644
1140.70344465646,-0.00190720319437262,13860,13921
1144.32973681812,-0.00108740671801835,13961,13996
1147.95164928479,-0.0106951091292281,13998,14347
1151.56918205647,-0.0183678618931073,14097,14706
1155.18233513317,-0.0242857108542247,14049,14857
1158.79110851489,-0.0305302346387075,14033,15055
1162.39550220162,-0.041544103339992,13817,15204
1165.99551619337,-0.0393738212616987,13878,15195
1169.59115049013,-0.0433573422435965,13935,15398
1174.37851669362,-0.0434553088056142,13940,15407
1177.96393170208,-0.0416152406430683,14011,15420
1181.54496701556,-0.0407578706834661,14066,15450
1185.12162263406,-0.0390699364757907,14214,15552
1188.69389855757,-0.0376472546980758,14345,15644
1192.2617947861,-0.0390859463855166,14484,15848
1195.82531131964,-0.0297917087655747,14858,15913
1199.3844481582,-0.0221242860976443,15135,15926
1204.12315108408,-0.0203312212765361,15440,16180
1207.67206863434,-0.0205114494326112,15694,16453
1211.21660648961,-0.0142160861855157,16108,16644
1214.7567646499,-0.0189969797559982,16304,17033
1218.29254311521,-0.0149081596840674,16751,17336
1221.82394188553,-0.0184748462276923,16913,17648
1225.35096096087,-0.0141437775130492,17249,17820
1228.87360034122,-0.0125947880438331,17536,18052
1232.39186002659,-0.0110215840032337,17819,18277
1237.07606008155,-0.00973552681407907,18262,18676
1240.58410047862,-0.0106429549076879,18461,18919
1244.0877611807,-0.0128934404171015,18750,19315
1247.58704218781,-0.0139780869715241,19016,19638
1251.08194349992,-0.0111505497929054,19379,19883
1254.57246511705,-0.0119915606811854,19574,20122
1258.0586070392,-0.0139590157134106,19869,20518
1261.54036926637,-0.0129073014713483,20155,20763
1266.17590604372,-0.0135783314336322,20561,21214
1269.64744898258,-0.0102413367116006,20954,21454
1273.11461222646,-0.0109290139365593,21268,21810
1276.57739577536,-0.011053903753802,21335,21885
1280.03579962927,-0.00695138784060183,21816,22168
1283.4898237882,-0.00926027744876244,21901,22373
1286.93946825214,-0.00591415350243853,22172,22476
1290.3847330211,-0.00437102567095641,22342,22568
1293.82561809507,-0.00280166199427598,22559,22705
1298.40665200151,-0.000517325233181431,22653,22680
1301.83731778718,0.00310006630565009,22776,22614
1305.26360387787,0.0034002556705388,22824,22646
1308.68551027358,0.00341222921855585,22872,22693
1312.1030369743,0.000702450190537409,22894,22857
1315.51618398004,0.00130518268278726,22994,22925
1318.92495129079,-0.00119106586462389,22940,23003
1322.32933890656,-0.00256444169656263,22964,23100
1326.86170953539,-0.00773604249730927,22757,23166
1330.25587786286,-0.00945127202312327,22590,23087
1333.64566649535,-0.0065171120187065,22620,22962
1337.03107543285,-0.0086158216077444,22309,22756
1340.41210467537,-0.00871288488837307,22058,22505
1343.7887542229,-0.0143122966769067,21639,22364
1347.16102407545,-0.0188797319018334,21404,22355
1350.52891423301,-0.0253054772248418,21117,22384
1353.89242469559,-0.027769426886231,20733,22102
1358.3702924535,-0.0303097503107737,20295,21762
1361.72358362778,-0.0307558501178324,20072,21545
1365.07249510707,-0.033654783819998,19907,21511
1368.41702689139,-0.0361935110757083,19549,21248
1371.75717898071,-0.0335712306551565,19411,20971
1375.09295137506,-0.0346799566335594,19115,20704
1378.42434407441,-0.0355041730470217,18712,20306
1381.75135707879,-0.0361205386831577,18391,19986
1385.07399038818,-0.0356470729617508,18026,19568
1389.49735527517,-0.0365347392585601,17604,19149
1392.80976929626,-0.0384514202819909,17240,18836
1396.11780362236,-0.0409405793062973,16863,18530
1399.42145825349,-0.0381892176537583,16613,18140
1402.72073318962,-0.0505067312772297,16152,18144
1406.01562843078,-0.0536208065822247,15927,18020
1409.30614397695,-0.057946853042951,15651,17885
1412.59227982813,-0.0651618781935293,15221,17685
1416.96698143751,-0.0728523463984805,14723,17412
1420.2428980004,-0.0810139797660706,14385,17335
1423.5144348683,-0.0855015299426465,14132,17207
1426.78159204122,-0.0920444314660904,13805,17064
1430.04436951915,-0.094347040199893,13596,16895
1433.3027673021,-0.10063544273819,13372,16859
1436.55678539006,-0.103241752766704,13128,16651
1439.80642378304,-0.097055303966086,13150,16443
1443.05168248104,-0.0973685677335754,13063,16346
1447.3718812195,-0.0925407685256821,12847,15898
1450.6069206292,-0.0841296613117174,12828,15570
1453.83758034391,-0.070210147565072,12709,14939
1457.06386036364,-0.0485358678990287,12652,14148
1460.28576068838,-0.0407904857445655,12531,13765
1463.50328131814,-0.0443890248151885,12619,13977
1466.71642225291,-0.0618697383542639,12390,14287
1469.9251834927,-0.0732712640586505,12368,14641
1474.19671895356,-0.0716527550968885,12365,14583
1477.39526090505,-0.0594073804483266,12368,14181
1480.58942316156,-0.0491544503240382,12200,13662
1483.77920572308,-0.0345222947585938,12123,13126
1486.96460858962,-0.0105697136565287,12096,12394
1490.14563176117,0.00462969920923445,11977,11850
1493.32227523774,0.0141915802219244,11851,11470
1496.49453901933,0.0274534260809226,11819,11095
1499.66242310593,0.0295259674436656,11700,10931
1503.87945569586,0.0393245946399501,11690,10678
1507.03712049416,0.0459294543253069,11788,10605
1510.19040559748,0.0340820936908724,11540,10669
1513.33931100582,0.0248742965233117,11587,10942
1516.48383671916,0.0270547681993371,11640,10937
1519.62398273753,0.0211569753770993,11420,10877
1522.75974906091,0.0282545215723261,11415,10696
1525.8911356893,0.032352443617377,11353,10538
1530.05950500163,0.0233826712006629,11275,10684
1533.18067234173,0.0202571922380539,11147,10639
1536.29745998684,0.0101474352584881,10955,10702
1539.40986793697,-8.09194118053899E-05,10733,10735
1542.51789619211,-0.00708225491410132,10644,10819
1545.62154475227,-0.0174079539069626,10563,10995
1548.72081361745,-0.032958551149049,10413,11234
1551.81570278764,-0.0477274693490567,10184,11367
1554.90621226284,-0.0539676565582076,9961,11279
1559.02007870425,-0.0611492999872762,9782,11261
1562.10036889116,-0.0678202898998576,9579,11198
1565.17627938308,-0.0724118335978839,9386,11089
1568.24781018002,-0.0789845101521186,9200,11035
1571.31496128198,-0.0818824999718673,9109,10999
1574.37773268895,-0.0931919604904395,8845,10962
1577.43612440093,-0.0906552945608149,8728,10754
1580.49013641793,-0.0975571272747805,8584,10746
1584.55533958173,-0.101346664001308,8317,10503
1587.59913231044,-0.0974265346192828,8235,10306
1590.63854534416,-0.0924059213690361,8064,9976
1593.67357868289,-0.0995054610849735,7841,9860
1596.70423232664,-0.0981481217385112,7706,9660
1599.7305062754,-0.107769530946945,7417,9506
1602.75240052918,-0.0988644725667969,7272,9131
1605.76991508798,-0.0959962653528731,7232,9021
1608.78304995179,-0.0901344563443059,7080,8713
1612.79375024467,-0.0842159583059756,6818,8277
1615.79666582019,-0.0966556912872641,6491,8109
1618.79520170071,-0.086451932882765,6338,7734
1621.78935788626,-0.0869741460676745,6057,7400
1624.77913437682,-0.076269846110499,5912,7047
1627.76453117239,-0.0695113921149903,5813,6822
1630.74554827298,-0.0606086015260393,5502,6326
1633.72218567859,-0.0553534425314255,5407,6142
1637.68422269387,-0.0601003585989741,5060,5811
1640.65064081117,-0.0536458615684249,4921,5568
1643.6126792335,-0.0524111254670147,4709,5313
1646.57033796084,-0.0374342950390162,4599,5013
1649.52361699319,-0.0356842322000359,4379,4754
1652.47251633056,-0.0335467589521643,4184,4520
1655.41703597295,-0.0271657298904856,3904,4156
1658.35717592035,-0.0148588921029261,3735,3865
1661.29293617276,0.00558039693678814,3603,3557
1665.20047031712,0.00478859410333861,3283,3247
1668.12601128124,-0.000720342646325464,3012,3017
1671.04717255037,-0.0118224996033853,2754,2830
1673.96395412452,-0.0395986625709659,2514,2754
1676.87635600369,-0.0700718370001931,2176,2557
1679.78437818787,-0.0713990553721156,1830,2157
1682.68802067706,-0.100807083081134,1531,1931
1685.58728347128,-0.137945694872933,1217,1672
1689.44615433803,-0.171690787042781,1025,1522
1692.33519784394,-0.185659945601477,808,1239
1695.21986165487,-0.158192547079619,710,1022
1698.10014577081,-0.0540075659860979,657,744
1700.97605019177,-0.111633269828763,522,675
